0, 23.168
1, 23.043
2, 23.211
3, 23.069
4, 23.4
5, 23.579
6, 23.293
7, 23.327
8, 23.256
9, 22.775
10, 23.007
11, 23.211
12, 22.971
13, 22.856
14, 22.802
15, 22.847
16, 22.864
17, 22.497
18, 22.219
19, 22.274
20, 22.462
21, 22.666
22, 23.47
23, 23.202
24, 23.659
25, 23.757
26, 23.846
27, 24.114
28, 24.204
29, 23.551
30, 23.534
31, 23.65
32, 22.989
33, 22.322
34, 21.874
35, 22.497
36, 22.471
37, 21.855
38, 22.303
39, 22.032
40, 22.195
41, 21.426
42, 21.641
43, 21.167
44, 21.524
45, 21.604
46, 21.669
47, 22.479
48, 22.331
49, 22.766
50, 22.909
51, 22.471
52, 22.506
53, 22.107
54, 22.016
55, 22.229
56, 22.775
57, 23.275
58, 22.909
59, 22.73
60, 22.847
61, 23.052
62, 22.399
63, 22.793
64, 22.838
65, 22.322
66, 22.497
67, 22.349
68, 22.032
69, 22.177
70, 21.891
71, 21.687
72, 21.91
73, 21.882
74, 21.901
75, 22.238
76, 22.212
77, 22.516
78, 22.229
79, 21.91
80, 22.177
81, 22.115
82, 21.874
83, 22.115
84, 21.979
85, 22.331
86, 22.606
87, 22.676
88, 22.766
89, 22.73
90, 22.341
91, 22.341
92, 22.909
93, 23.194
94, 23.007
95, 22.748
96, 22.685
97, 22.417
98, 22.177
99, 22.427
100, 22.624
101, 22.399
102, 22.479
103, 22.322
104, 22.444
105, 22.356
106, 22.666
107, 22.255
108, 22.322
109, 22.506
110, 22.544
111, 22.525
112, 22.322
113, 22.303
114, 22.364
115, 22.497
116, 22.606
117, 22.381
118, 22.462
119, 22.032
120, 21.809
121, 21.874
122, 21.935
123, 21.953
124, 21.784
125, 21.712
126, 21.729
127, 21.524
128, 21.828
129, 21.776
130, 22.195
131, 22.229
132, 22.238
133, 22.399
134, 22.331
135, 22.293
136, 22.142
137, 22.356
138, 21.891
139, 21.491
140, 21.552
141, 21.696
142, 21.696
143, 21.669
144, 21.267
145, 21.222
146, 21.491
147, 22.588
148, 22.274
149, 22.177
150, 22.219
151, 22.238
152, 22.544
153, 22.525
154, 22.071
155, 22.157
156, 22.284
157, 22.052
158, 22.303
159, 22.381
160, 22.739
161, 23.194
162, 23.256
163, 23.3
164, 23.614
165, 21.507
166, 21.669
167, 21.712
168, 21.935
169, 22.284
170, 22.255
171, 22.657
172, 22.847
173, 22.909
174, 23.007
175, 23.419
176, 23.293
177, 23.597
178, 23.479
179, 23.211
180, 23.641
181, 23.614
182, 23.659
183, 23.534
184, 23.579
185, 23.82
186, 23.936
187, 23.998
188, 23.836
189, 23.846
190, 24.114
191, 23.551
192, 24.363
193, 24.489
194, 24.346
195, 24.418
196, 24.55
197, 24.41
198, 24.283
199, 24.213
200, 24.327
201, 24.506
202, 24.275
203, 24.231
204, 23.9
205, 23.479
206, 23.479
207, 23.534
208, 23.453
209, 23.391
210, 23.695
211, 23.597
212, 23.677
213, 23.551
214, 23.3
215, 23.437
216, 23.891
217, 23.864
218, 23.926
219, 24.104
220, 24.266
221, 24.292
222, 24.266
223, 24.167
224, 24.025
225, 24.114
226, 24.176
227, 24.577
228, 24.131
229, 24.454
230, 24.55
231, 24.713
232, 24.454
233, 24.418
234, 25.191
235, 25.161
236, 25.051
237, 24.713
238, 24.978
239, 24.327
240, 24.506
241, 24.56
242, 25.426
243, 24.292
244, 24.497
245, 24.497
246, 24.213
247, 24.231
248, 24.087
249, 24.068
250, 23.944
251, 24.007
252, 23.802
253, 23.677
254, 24.034
255, 24.061
256, 23.846
257, 23.659
258, 23.783
259, 23.926
260, 23.917
261, 24.24
262, 24.204
263, 24.231
264, 24.283
265, 24.418
266, 24.55
267, 24.661
268, 24.427
269, 24.481
270, 24.41
271, 24.309
272, 24.194
273, 23.926
274, 24.41
275, 24.489
276, 24.661
277, 24.167
278, 24.55
279, 23.917
280, 23.907
281, 23.917
282, 23.445
283, 23.419
284, 23.551
285, 23.551
286, 23.614
287, 23.659
288, 24.016
289, 23.864
290, 23.346
291, 23.132
292, 23.427
293, 23.318
294, 23.318
295, 23.391
296, 23.453
297, 23.56
298, 23.677
299, 23.846
300, 24.087
301, 24.266
302, 24.186
303, 24.051
304, 23.757
305, 23.614
306, 23.525
307, 23.515
308, 23.337
309, 23.211
310, 23.3
311, 23.337
312, 23.033
313, 23.078
314, 23.033
315, 23.087
316, 23.024
317, 23.479
318, 23.453
319, 23.497
320, 23.479
321, 23.4
322, 23.479
323, 23.239
324, 23.105
325, 22.881
326, 22.525
327, 22.409
328, 22.695
329, 22.624
330, 22.364
331, 22.399
332, 22.571
333, 22.331
334, 22.544
335, 22.872
336, 22.657
337, 22.81
338, 23.384
339, 22.142
340, 22.72
341, 22.525
342, 22.535
343, 21.979
344, 22.391
345, 22.497
346, 21.776
347, 21.259
348, 21.319
349, 21.105
350, 21.338
351, 21.97
352, 22.195
353, 21.747
354, 22.471
355, 22.72
356, 22.525
357, 22.479
358, 23.043
359, 22.989
360, 22.73
361, 22.856
362, 23.168
363, 23.293
364, 23.033
365, 22.81
366, 22.641
367, 22.588
368, 22.562
369, 22.525
370, 23.007
371, 23.479
372, 23.275
373, 23.256
374, 22.971
375, 23.043
376, 22.766
377, 22.649
378, 22.506
379, 22.917
380, 23.178
381, 23.168
382, 22.989
383, 22.989
384, 23.132
385, 22.666
386, 22.341
387, 22.322
388, 22.284
389, 22.703
390, 22.872
391, 22.685
392, 22.391
393, 22.391
394, 22.322
395, 22.606
396, 22.453
397, 22.142
398, 22.588
399, 23.115
400, 22.989
401, 23.194
402, 22.711
403, 22.417
404, 22.349
405, 22.998
406, 23.318
407, 23.409
408, 23.614
409, 23.702
410, 23.944
411, 24.204
412, 24.515
413, 24.533
414, 24.533
415, 24.56
416, 25.041
417, 25.014
418, 24.892
419, 24.73
420, 24.919
421, 24.919
422, 24.614
423, 24.661
424, 24.506
425, 24.043
426, 24.577
427, 24.919
428, 25.161
429, 25.302
430, 25.569
431, 25.265
432, 25.468
433, 26.042
434, 26.731
435, 26.828
436, 26.767
437, 27.005
438, 27.053
439, 27.024
440, 26.945
441, 26.99
442, 26.783
443, 26.945
444, 27.168
445, 27.346
446, 27.005
447, 27.57
448, 27.417
449, 27.043
450, 26.953
451, 26.8
452, 26.649
453, 26.472
454, 26.677
455, 26.828
456, 26.686
457, 26.15
458, 26.24
459, 26.435
460, 26.246
461, 25.997
462, 26.435
463, 26.963
464, 26.722
465, 26.354
466, 26.559
467, 26.498
468, 25.979
469, 26.078
470, 26.14
471, 26.168
472, 26.703
473, 26.945
474, 27.248
475, 27.185
476, 26.838
477, 27.095
478, 26.722
479, 27.372
480, 27.131
481, 27.185
482, 27.229
483, 27.391
484, 27.337
485, 27.229
486, 27.451
487, 27.506
488, 27.328
489, 27.292
490, 27.159
491, 27.337
492, 29.462
493, 29.283
494, 29.365
495, 29.595
496, 29.041
497, 29.143
498, 29.392
499, 29.256
500, 29.169
501, 29.82
502, 29.943
503, 29.283
504, 29.374
505, 29.595
506, 29.365
507, 29.218
508, 29.462
509, 29.524
510, 29.614
511, 29.657
512, 30.007
513, 29.067
514, 29.356
515, 29.505
516, 29.301
517, 29.579
518, 29.684
519, 30.434
520, 30.086
521, 30.587
522, 30.461
523, 30.104
524, 30.07
525, 30.023
526, 29.88
527, 30.015
528, 30.308
529, 30.508
530, 30.622
531, 30.508
532, 30.56
533, 30.3
534, 30.837
535, 30.954
536, 31.382
537, 31.31
538, 30.801
539, 33.319
540, 33.532
541, 33.486
542, 33.719
543, 33.925
544, 33.836
545, 33.836
546, 32.694
547, 33.237
548, 33.347
549, 33.328
550, 33.469
551, 33.461
552, 33.469
553, 33.603
554, 32.167
555, 33.22
556, 32.791
557, 32.516
558, 32.72
559, 32.781
560, 32.865
561, 32.89
562, 33.355
563, 33.272
564, 32.908
565, 33.124
566, 33.281
567, 33.621
568, 33.532
569, 33.971
570, 33.971
571, 33.826
572, 33.436
573, 32.855
574, 33.013
575, 32.8
576, 32.121
577, 32.549
578, 33.211
579, 33.855
580, 33.115
581, 33.087
582, 32.229
583, 32.32
584, 31.97
585, 31.569
586, 31.656
587, 32.087
588, 32.248
589, 31.748
590, 32.676
591, 32.846
592, 32.97
593, 33.105
594, 32.837
595, 32.489
596, 32.908
597, 33.596
598, 33.845
599, 33.532
600, 34.177
601, 34.989
602, 33.836
603, 33.882
604, 33.988
605, 33.132
606, 32.667
607, 32.062
608, 31.586
609, 32.2
610, 32.499
611, 33.013
612, 33.068
613, 32.302
614, 32.685
615, 32.442
616, 34.738
617, 33.9
618, 34.676
619, 34.167
620, 33.3
621, 31.979
622, 33.469
623, 33.551
624, 32.738
625, 32.541
626, 32.63
627, 32.175
628, 32.676
629, 31.898
630, 31.157
631, 31.889
632, 32.2
633, 32.433
634, 32.175
635, 31.674
636, 30.978
637, 30.532
638, 30.461
639, 31.033
640, 30.508
641, 30.275
642, 30.452
643, 30.157
644, 31.176
645, 32.13
646, 32.158
647, 32.694
648, 32.63
649, 32.549
650, 33.31
651, 33.542
652, 33.809
653, 34.221
654, 35.05
655, 34.837
656, 34.81
657, 35.65
658, 35.256
659, 35.399
660, 34.63
661, 34.435
662, 35.347
663, 34.829
664, 34.897
665, 34.953
666, 37.38
667, 36.602
668, 39.426
669, 39.676
670, 38.561
671, 38.846
672, 39.632
673, 38.691
674, 38.71
675, 39.908
676, 38.227
677, 38.357
678, 38.691
679, 39.219
680, 37.266
681, 37.647
682, 37.158
683, 37.344
684, 38.301
685, 37.784
686, 37.068
687, 36.998
688, 36.445
689, 36.567
690, 36.594
691, 37.497
692, 36.148
693, 36.507
694, 38.802
695, 37.784
696, 37.685
697, 36.979
698, 36.489
699, 37.628
700, 38.691
701, 38.792
702, 38.89
703, 37.889
704, 38.399
705, 37.916
706, 37.248
707, 36.059
708, 36.445
709, 35.604
710, 36.12
711, 37.861
712, 38.747
713, 38.579
714, 37.158
715, 37.22
716, 36.524
717, 35.675
718, 35.193
719, 36.077
720, 35.569
721, 34.38
722, 35.47
723, 35.435
724, 33.925
725, 34.837
726, 33.809
727, 33.495
728, 32.451
729, 31.345
730, 31.015
731, 32.451
732, 31.739
733, 32.461
734, 33.281
735, 33.328
736, 32.148
737, 33.658
738, 33.98
739, 32.408
740, 31.328
741, 31.157
742, 30.747
743, 32.451
744, 33.818
745, 34.774
746, 35.238
747, 34.525
748, 34.765
749, 34.371
750, 34.552
751, 34.301
752, 34.622
753, 35.273
754, 35.238
755, 35.193
756, 34.586
757, 33.461
758, 33.971
759, 32.881
760, 32.927
761, 31.693
762, 31.943
763, 31.229
764, 32.809
765, 32.549
766, 32.559
767, 31.606
768, 31.46
769, 33.791
770, 32.89
771, 33.658
772, 34.622
773, 35.238
774, 34.962
775, 34.479
776, 34.417
777, 34.756
778, 36.292
779, 36.308
780, 36.148
781, 36.212
782, 36.445
783, 36.212
784, 35.532
785, 36.416
786, 35.55
787, 35.185
788, 35.845
789, 37.765
790, 40.051
791, 39.524
792, 40.227
793, 39.362
794, 39.727
795, 39.951
796, 40.129
797, 39.864
798, 39.372
799, 39.417
800, 39.708
801, 39.362
802, 39.426
803, 39.632
804, 38.656
805, 38.872
806, 39.042
807, 39.951
808, 39.987
809, 39.746
810, 39.899
811, 39.923
812, 39.362
813, 39.524
814, 39.024
815, 39.353
816, 39.238
817, 39.847
818, 40.245
819, 40.639
820, 39.923
821, 39.551
822, 39.568
823, 40.004
824, 41.212
825, 39.96
826, 39.229
827, 39.193
828, 38.069
829, 38.426
830, 38.624
831, 38.7
832, 38.282
833, 37.628
834, 38.292
835, 37.619
836, 37.852
837, 37.033
838, 37.81
839, 36.899
840, 37.819
841, 37.453
842, 37.602
843, 37.033
844, 36.747
845, 36.435
846, 37.085
847, 36.667
848, 37.033
849, 36.979
850, 36.861
851, 36.694
852, 37.561
853, 38.862
854, 33.988
855, 33.228
856, 34.058
857, 33.801
858, 33.31
859, 33.56
860, 33.159
861, 34.033
862, 35.281
863, 34.552
864, 34.56
865, 34.023
866, 34.829
867, 35.138
868, 35.06
869, 35.47
870, 36.007
871, 35.692
872, 36.033
873, 35.988
874, 36.139
875, 35.701
876, 35.138
877, 35.281
878, 35.203
879, 35.801
880, 35.221
881, 35.264
882, 35.65
883, 36.533
884, 36.059
885, 35.979
886, 36.302
887, 35.381
888, 35.478
889, 35.961
890, 35.435
891, 35.683
892, 35.399
893, 35.961
894, 34.906
895, 36.302
896, 34.701
897, 36.667
898, 36.953
899, 36.049
900, 35.347
901, 35.329
902, 35.701
903, 35.487
904, 33.864
905, 34.916
906, 35.228
907, 34.077
908, 32.606
909, 31.811
910, 30.944
911, 30.434
912, 28.567
913, 29.934
914, 31.194
915, 30.308
916, 28.267
917, 29.703
918, 28.772
919, 28.781
920, 27.516
921, 25.693
922, 25.089
923, 24.247
924, 23.65
925, 24.632
926, 26.087
927, 26.953
928, 27.069
929, 27.657
930, 28.659
931, 27.971
932, 26.982
933, 28.202
934, 27.792
935, 27.372
936, 26.4
937, 27.98
938, 26.677
939, 27.043
940, 26.872
941, 25.079
942, 25.079
943, 26.096
944, 26.8
945, 27.873
946, 29.237
947, 29.854
948, 26.774
949, 27.839
950, 28.211
951, 27.524
952, 28.694
953, 29.05
954, 27.784
955, 28.659
956, 27.579
957, 28.781
958, 28.567
959, 30.711
960, 30.605
961, 29.738
962, 29.854
963, 29.328
964, 29.505
965, 29.496
966, 29.98
967, 29.871
968, 31.078
969, 31.46
970, 31.979
971, 31.31
972, 30.364
973, 29.346
974, 30.07
975, 29.05
976, 28.909
977, 28.937
978, 27.283
979, 27.758
980, 27.176
981, 25.979
982, 27.113
983, 26.774
984, 26.791
985, 27.113
986, 27.443
987, 28.463
988, 28.069
989, 27.516
990, 26.774
991, 26.819
992, 26.533
993, 26.853
994, 27.552
995, 27.033
996, 25.954
997, 26.186
998, 26.427
999, 26.051
1000, 24.997
1001, 24.819
1002, 24.515
1003, 24.39
1004, 23.462
1005, 24.337
1006, 24.661
1007, 24.686
1008, 25.051
1009, 23.551
1010, 23.318
1011, 23.765
1012, 23.043
1013, 22.81
1014, 22.588
1015, 23.488
1016, 23.337
1017, 24.051
1018, 24.481
1019, 24.437
1020, 24.96
1021, 26.371
1022, 26.828
1023, 26.328
1024, 27.506
1025, 27.176
1026, 27.596
1027, 28.996
1028, 28.659
1029, 27.631
1030, 27.802
1031, 27.758
1032, 29.247
1033, 29.328
1034, 29.328
1035, 28.3
1036, 28.978
1037, 29.908
1038, 29.328
1039, 28.567
1040, 28.892
1041, 26.99
1042, 26.489
1043, 25.738
1044, 26.435
1045, 26.24
1046, 26.658
1047, 27.033
1048, 26.99
1049, 26.783
1050, 27.488
1051, 27.701
1052, 27.399
1053, 27.971
1054, 27.961
1055, 28.185
1056, 27.802
1057, 27.998
1058, 27.758
1059, 27.82
1060, 26.935
1061, 27.425
1062, 27.364
1063, 27.675
1064, 27.907
1065, 27.71
1066, 27.443
1067, 27.391
1068, 28.24
1069, 27.409
1070, 27.185
1071, 27.683
1072, 28.721
1073, 29.337
1074, 29.283
1075, 29.328
1076, 28.962
1077, 29.237
1078, 29.479
1079, 29.755
1080, 30.383
1081, 30.373
1082, 29.72
1083, 29.444
1084, 29.587
1085, 29.452
1086, 29.382
1087, 28.585
1088, 28.754
1089, 28.781
1090, 29.425
1091, 29.784
1092, 30.166
1093, 30.148
1094, 30.452
1095, 30.042
1096, 29.595
1097, 29.067
1098, 28.928
1099, 28.944
1100, 29.202
1101, 29.747
1102, 29.755
1103, 31.246
1104, 31.907
1105, 31.373
1106, 31.979
1107, 31.784
1108, 31.898
1109, 32.219
1110, 32.193
1111, 31.47
1112, 31.221
1113, 30.907
1114, 31.229
1115, 31.176
1116, 31.856
1117, 32.044
1118, 31.73
1119, 31.328
1120, 31.534
1121, 31.246
1122, 31.711
1123, 31.88
1124, 32.113
1125, 31.648
1126, 31.007
1127, 31.148
1128, 31.442
1129, 31.507
1130, 31.811
1131, 31.693
1132, 31.683
1133, 31.398
1134, 31.328
1135, 31.042
1136, 30.693
1137, 30.48
1138, 30.337
1139, 30.48
1140, 30.622
1141, 31.202
1142, 31.398
1143, 31.488
1144, 31.674
1145, 32.053
1146, 32.855
1147, 33.132
1148, 32.978
1149, 32.764
1150, 32.988
1151, 33.124
1152, 33.355
1153, 32.865
1154, 32.48
1155, 33.347
1156, 33.373
1157, 33.355
1158, 32.516
1159, 32.248
1160, 32.772
1161, 32.881
1162, 33.097
1163, 33.337
1164, 33.908
1165, 33.882
1166, 33.962
1167, 34.719
1168, 33.658
1169, 33.469
1170, 33.505
1171, 33.097
1172, 32.694
1173, 33.184
1174, 32.995
1175, 32.96
1176, 32.38
1177, 31.632
1178, 31.907
1179, 31.524
1180, 31.185
1181, 31.425
1182, 31.265
1183, 31.838
1184, 31.641
1185, 32.167
1186, 32.095
1187, 32.103
1188, 31.784
1189, 32.139
1190, 32.772
1191, 32.952
1192, 32.676
1193, 32.506
1194, 32.442
1195, 32.747
1196, 32.597
1197, 32.873
1198, 32.062
1199, 32.248
1200, 32.416
1201, 32.559
1202, 32.193
1203, 32.615
1204, 32.712
1205, 32.747
1206, 32.772
1207, 32.416
1208, 32.657
1209, 32.623
1210, 32.729
1211, 32.809
1212, 32.327
1213, 32.079
1214, 32.311
1215, 32.408
1216, 32.294
1217, 32.471
1218, 32.489
1219, 32.461
1220, 32.425
1221, 31.907
1222, 32.353
1223, 32.32
1224, 32.809
1225, 32.809
1226, 32.837
1227, 32.865
1228, 32.881
1229, 32.936
1230, 32.837
1231, 32.353
1232, 32.936
1233, 32.516
1234, 32.2
1235, 32.193
1236, 32.193
1237, 32.139
1238, 32.327
1239, 32.071
1240, 31.674
1241, 31.748
1242, 32.21
1243, 32.139
1244, 31.337
1245, 31.275
1246, 31.382
1247, 31.624
1248, 31.318
1249, 33.836
1250, 33.962
1251, 33.719
1252, 33.444
1253, 33.836
1254, 34.033
1255, 34.122
1256, 33.98
1257, 34.328
1258, 34.247
1259, 34.399
1260, 34.829
1261, 35.097
1262, 35.39
1263, 35.39
1264, 36.025
1265, 36.12
1266, 35.871
1267, 35.97
1268, 36.033
1269, 36.068
1270, 35.709
1271, 36.015
1272, 36.157
1273, 35.916
1274, 35.542
1275, 35.435
1276, 35.667
1277, 34.953
1278, 34.676
1279, 34.924
1280, 35.329
1281, 35.478
1282, 35.129
1283, 35.264
1284, 35.406
1285, 35.478
1286, 35.622
1287, 35.881
1288, 36.533
1289, 36.611
1290, 36.739
1291, 37.301
1292, 37.81
1293, 38.254
1294, 38.32
1295, 38.192
1296, 38.301
1297, 38.477
1298, 38.607
1299, 38.477
1300, 38.121
1301, 38.347
1302, 39.033
1303, 38.426
1304, 38.988
1305, 38.856
1306, 37.943
1307, 36.926
1308, 36.015
1309, 37.637
1310, 37.666
1311, 38.104
1312, 37.738
1313, 36.435
1314, 36.808
1315, 35.997
1316, 35.942
1317, 34.729
1318, 34.56
1319, 34.435
1320, 34.13
1321, 34.435
1322, 35.667
1323, 35.586
1324, 34.871
1325, 35.579
1326, 35.524
1327, 34.336
1328, 33.943
1329, 33.925
1330, 33.587
1331, 34.461
1332, 34.934
1333, 34.81
1334, 35.854
1335, 36.292
1336, 36.148
1337, 36.176
1338, 35.801
1339, 34.819
1340, 34.452
1341, 34.264
1342, 34.586
1343, 35.032
1344, 34.114
1345, 33.768
1346, 33.587
1347, 33.952
1348, 33.337
1349, 34.38
1350, 34.855
1351, 35.024
1352, 34.897
1353, 36.379
1354, 36.317
1355, 36.302
1356, 35.56
1357, 35.461
1358, 35.942
1359, 35.925
1360, 37.534
1361, 38.121
1362, 38.81
1363, 38.673
1364, 38.606
1365, 38.38
1366, 38.45
1367, 38.862
1368, 38.784
1369, 38.923
1370, 38.97
1371, 39.077
1372, 39.077
1373, 38.552
1374, 37.38
1375, 37.48
1376, 37.362
1377, 37.38
1378, 38.069
1379, 37.988
1380, 37.405
1381, 37.552
1382, 37.202
1383, 36.594
1384, 36.667
1385, 36.558
1386, 37.506
1387, 36.594
1388, 37.179
1389, 38.177
1390, 38.579
1391, 39.147
1392, 38.905
1393, 39.165
1394, 39.265
1395, 39.291
1396, 39.89
1397, 40.138
1398, 40.817
1399, 40.755
1400, 40.417
1401, 40.434
1402, 39.899
1403, 39.684
1404, 39.408
1405, 40.023
1406, 39.819
1407, 40.558
1408, 40.675
1409, 40.773
1410, 40.425
1411, 40.524
1412, 41.462
1413, 41.434
1414, 41.212
1415, 41.462
1416, 41.729
1417, 41.685
1418, 42.024
1419, 41.953
1420, 41.747
1421, 41.808
1422, 41.406
1423, 42.308
1424, 40.175
1425, 40.218
1426, 40.399
1427, 40.301
1428, 40.327
1429, 40.38
1430, 40.07
1431, 40.004
1432, 40.096
1433, 40.227
1434, 41.265
1435, 41.444
1436, 41.372
1437, 41.325
1438, 41.816
1439, 41.619
1440, 41.075
1441, 41.093
1442, 40.434
1443, 40.488
1444, 40.594
1445, 40.693
1446, 41.085
1447, 40.575
1448, 41.489
1449, 41.38
1450, 40.969
1451, 40.773
1452, 41.816
1453, 42.416
1454, 43.05
1455, 42.425
1456, 42.212
1457, 41.694
1458, 41.738
1459, 42.015
1460, 41.86
1461, 41.747
1462, 41.657
1463, 42.327
1464, 42.057
1465, 42.272
1466, 42.346
1467, 42.818
1468, 42.737
1469, 42.914
1470, 43.007
1471, 42.853
1472, 42.706
1473, 42.47
1474, 42.96
1475, 42.69
1476, 42.765
1477, 42.381
1478, 42.299
1479, 42.354
1480, 42.69
1481, 43.034
1482, 43.017
1483, 43.275
1484, 43.807
1485, 43.454
1486, 43.069
1487, 42.862
1488, 43.426
1489, 43.343
1490, 43.603
1491, 43.471
1492, 42.682
1493, 42.905
1494, 43.471
1495, 43.389
1496, 43.211
1497, 43.389
1498, 44.139
1499, 44.479
1500, 44.181
1501, 44.31
1502, 44.174
1503, 43.96
1504, 43.926
1505, 43.916
1506, 44.181
1507, 43.291
1508, 42.674
1509, 42.363
1510, 42.89
1511, 43.006
1512, 42.372
1513, 42.346
1514, 43.407
1515, 42.801
1516, 42.649
1517, 44.396
1518, 44.005
1519, 42.881
1520, 42.978
1521, 43.211
1522, 42.568
1523, 42.246
1524, 42.323
1525, 42.854
1526, 43.737
1527, 43.667
1528, 43.73
1529, 43.863
1530, 43.721
1531, 43.658
1532, 43.585
1533, 44.3
1534, 44.76
1535, 45.333
1536, 45.657
1537, 46.032
1538, 46.014
1539, 45.477
1540, 44.958
1541, 44.683
1542, 44.089
1543, 44.3
1544, 44.345
1545, 44.84
1546, 44.278
1547, 44.789
1548, 45.529
1549, 45.862
1550, 45.799
1551, 46.444
1552, 46.705
1553, 46.91
1554, 46.992
1555, 47.332
1556, 46.928
1557, 46.488
1558, 46.005
1559, 45.925
1560, 46.811
1561, 46.947
1562, 46.238
1563, 47.009
1564, 46.865
1565, 47.413
1566, 46.588
1567, 47.69
1568, 47.476
1569, 47.054
1570, 46.194
1571, 46.113
1572, 46.642
1573, 46.569
1574, 46.792
1575, 47.841
1576, 46.696
1577, 46.56
1578, 45.827
1579, 45.289
1580, 45.576
1581, 45.333
1582, 45.772
1583, 45.155
1584, 46.095
1585, 46.23
1586, 45.324
1587, 45.394
1588, 45.226
1589, 45.379
1590, 45.961
1591, 45.772
1592, 45.529
1593, 45.343
1594, 45.727
1595, 46.246
1596, 46.625
1597, 46.891
1598, 47.698
1599, 47.625
1600, 48.535
1601, 48.688
1602, 48.571
1603, 47.905
1604, 47.832
1605, 47.707
1606, 47.054
1607, 47.176
1608, 46.256
1609, 47.967
1610, 47.545
1611, 47.625
1612, 47.517
1613, 47.239
1614, 47.085
1615, 46.114
1616, 45.907
1617, 45.935
1618, 45.889
1619, 44.916
1620, 44.626
1621, 42.683
1622, 42.954
1623, 40.726
1624, 42.73
1625, 40.859
1626, 42.606
1627, 43.012
1628, 43.566
1629, 43.171
1630, 42.983
1631, 41.5
1632, 41.985
1633, 42.011
1634, 43.038
1635, 43.434
1636, 42.614
1637, 43.639
1638, 45.087
1639, 45.27
1640, 45.418
1641, 44.271
1642, 43.177
1643, 42.796
1644, 43.649
1645, 43.955
1646, 43.264
1647, 43.081
1648, 43.639
1649, 44.296
1650, 44.673
1651, 44.296
1652, 43.658
1653, 43.305
1654, 42.003
1655, 41.211
1656, 41.524
1657, 42.298
1658, 42.848
1659, 41.073
1660, 41.811
1661, 40.192
1662, 38.501
1663, 40.177
1664, 41.079
1665, 41.82
1666, 41.344
1667, 42.505
1668, 42.901
1669, 43.827
1670, 43.405
1671, 43.763
1672, 42.739
1673, 43.705
1674, 42.749
1675, 43.143
1676, 43.629
1677, 44.611
1678, 43.503
1679, 44.043
1680, 44.333
1681, 44.206
1682, 43.16
1683, 41.568
1684, 42.507
1685, 43.962
1686, 43.874
1687, 43.846
1688, 43.754
1689, 42.645
1690, 42.931
1691, 43.929
1692, 43.545
1693, 43.919
1694, 43.73
1695, 43.122
1696, 43.412
1697, 42.888
1698, 43.233
1699, 42.41
1700, 42.036
1701, 43.53
1702, 43.946
1703, 45.906
1704, 45.717
1705, 46.052
1706, 46.322
1707, 45.839
1708, 45.789
1709, 45.066
1710, 45.852
1711, 45.138
1712, 44.884
1713, 44.281
1714, 45.129
1715, 46.259
1716, 45.202
1717, 47.172
1718, 47.199
1719, 47.172
1720, 47.525
1721, 47.472
1722, 46.901
1723, 47.443
1724, 47.154
1725, 47.255
1726, 47.352
1727, 46.956
1728, 46.863
1729, 46.81
1730, 46.956
1731, 46.818
1732, 46.517
1733, 46.526
1734, 46.709
1735, 47.08
1736, 47.335
1737, 46.591
1738, 46.619
1739, 46.49
1740, 46.781
1741, 47.136
1742, 47.255
1743, 47.317
1744, 47.582
1745, 48.597
1746, 47.926
1747, 48.561
1748, 48.561
1749, 48.507
1750, 48.28
1751, 48.797
1752, 48.144
1753, 47.58
1754, 47.5
1755, 47.571
1756, 47.88
1757, 47.943
1758, 47.653
1759, 47.608
1760, 48.252
1761, 48.317
1762, 48.317
1763, 47.88
1764, 47.911
1765, 48.052
1766, 48.289
1767, 48.425
1768, 47.344
1769, 47.372
1770, 48.348
1771, 48.597
1772, 48.652
1773, 49.387
1774, 49.433
1775, 49.821
1776, 49.686
1777, 49.551
1778, 49.377
1779, 49.269
1780, 49.014
1781, 49.279
1782, 49.849
1783, 49.734
1784, 49.868
1785, 49.841
1786, 49.716
1787, 49.923
1788, 50.163
1789, 49.736
1790, 49.242
1791, 49.15
1792, 48.417
1793, 48.924
1794, 49.468
1795, 49.088
1796, 49.259
1797, 49.469
1798, 49.451
1799, 49.506
1800, 49.824
1801, 49.25
1802, 49.242
1803, 50.144
1804, 49.669
1805, 49.934
1806, 49.678
1807, 49.824
1808, 49.697
1809, 49.971
1810, 48.96
1811, 48.842
1812, 49.023
1813, 48.96
1814, 48.823
1815, 48.658
1816, 47.693
1817, 47.154
1818, 46.736
1819, 45.697
1820, 45.294
1821, 46.078
1822, 46.106
1823, 46.524
1824, 46.532
1825, 46.125
1826, 46.217
1827, 45.45
1828, 46.183
1829, 45.806
1830, 45.768
1831, 45.934
1832, 47.009
1833, 47.336
1834, 47.756
1835, 47.182
1836, 47.729
1837, 47.363
1838, 47.739
1839, 47.638
1840, 47.957
1841, 47.784
1842, 47.61
1843, 46.599
1844, 47.137
1845, 46.217
1846, 46.098
1847, 46.234
1848, 46.052
1849, 46.524
1850, 47.19
1851, 47.876
1852, 47.849
1853, 46.899
1854, 45.312
1855, 45.085
1856, 44.864
1857, 44.703
1858, 45.422
1859, 45.242
1860, 45.404
1861, 45.852
1862, 46.217
1863, 45.67
1864, 45.369
1865, 44.432
1866, 44.976
1867, 45.396
1868, 46.164
1869, 46.008
1870, 45.579
1871, 44.851
1872, 44.27
1873, 45.624
1874, 45.55
1875, 45.816
1876, 45.697
1877, 45.615
1878, 45.67
1879, 45.752
1880, 45.742
1881, 46.1
1882, 46.376
1883, 46.338
1884, 46.29
1885, 46.109
1886, 46.537
1887, 46.245
1888, 46.52
1889, 46.236
1890, 46.667
1891, 46.613
1892, 46.201
1893, 46.366
1894, 46.687
1895, 46.328
1896, 46.502
1897, 47.134
1898, 46.785
1899, 46.86
1900, 46.943
1901, 47.73
1902, 48.022
1903, 47.967
1904, 47.693
1905, 47.976
1906, 48.223
1907, 48.214
1908, 48.196
1909, 47.592
1910, 47.426
1911, 47.254
1912, 47.335
1913, 47.362
1914, 47.484
1915, 47.629
1916, 47.886
1917, 48.124
1918, 47.976
1919, 47.308
1920, 46.86
1921, 46.933
1922, 46.895
1923, 47.097
1924, 47.703
1925, 48.516
1926, 48.279
1927, 47.913
1928, 48.133
1929, 47.335
1930, 47.069
1931, 46.958
1932, 47.28
1933, 46.943
1934, 48.635
1935, 45.301
1936, 45.672
1937, 46.122
1938, 44.982
1939, 44.385
1940, 44.154
1941, 44.035
1942, 43.352
1943, 42.334
1944, 42.113
1945, 42.469
1946, 43.161
1947, 43.188
1948, 43.17
1949, 43.785
1950, 43.944
1951, 43.501
1952, 43.747
1953, 43.925
1954, 43.831
1955, 43.17
1956, 43.29
1957, 43.448
1958, 43.841
1959, 43.861
1960, 43.935
1961, 43.897
1962, 43.739
1963, 43.4
1964, 43.141
1965, 43.563
1966, 43.732
1967, 44.198
1968, 44.311
1969, 43.915
1970, 44.127
1971, 43.715
1972, 43.925
1973, 43.528
1974, 43.878
1975, 44.834
1976, 45.01
1977, 45.625
1978, 45.24
1979, 47.556
1980, 47.06
1981, 46.782
1982, 46.931
1983, 47.106
1984, 47.4
1985, 47.418
1986, 47.851
1987, 48.118
1988, 47.831
1989, 47.64
1990, 47.906
1991, 47.841
1992, 47.157
1993, 47.971
1994, 47.916
1995, 47.61
1996, 48.257
1997, 48.238
1998, 48.552
1999, 48.883
2000, 48.848
2001, 48.515
2002, 48.442
2003, 48.701
2004, 49.125
2005, 49.032
2006, 49.071
2007, 49.662
2008, 48.295
2009, 48.257
2010, 48.803
2011, 48.137
2012, 48.468
2013, 49.337
2014, 49.836
2015, 49.401
2016, 49.337
2017, 49.708
2018, 50.243
2019, 50.383
2020, 51.045
2021, 51.14
2022, 51.149
2023, 51.121
2024, 51.258
2025, 51.464
2026, 51.332
2027, 51.563
2028, 52.341
2029, 51.981
2030, 51.963
2031, 51.74
2032, 52.341
2033, 52.518
2034, 52.987
2035, 52.634
2036, 52.876
2037, 52.332
2038, 52.358
2039, 51.822
2040, 52.1
2041, 52.145
2042, 52.895
2043, 53.107
2044, 52.572
2045, 51.178
2046, 51.611
2047, 50.824
2048, 50.419
2049, 50.89
2050, 51.24
2051, 51.889
2052, 52.435
2053, 52.128
2054, 51.406
2055, 51.368
2056, 52.066
2057, 51.479
2058, 51.6
2059, 51.963
2060, 52.037
2061, 52.101
2062, 52.397
2063, 51.933
2064, 52.425
2065, 51.953
2066, 52.249
2067, 52.594
2068, 52.502
2069, 52.966
2070, 52.956
2071, 52.891
2072, 52.539
2073, 52.613
2074, 52.175
2075, 52.406
2076, 52.223
2077, 53.122
2078, 52.642
2079, 52.761
2080, 52.511
2081, 51.768
2082, 52.23
2083, 52.899
2084, 53.076
2085, 52.761
2086, 52.017
2087, 53.169
2088, 52.937
2089, 53.03
2090, 53.214
2091, 52.53
2092, 51.339
2093, 51.071
2094, 50.886
2095, 50.915
2096, 51.007
2097, 51.426
2098, 51.443
2099, 51.923
2100, 51.785
2101, 51.86
2102, 52.548
2103, 52.807
2104, 53.643
2105, 53.911
2106, 55.053
2107, 55.36
2108, 55.461
2109, 55.156
2110, 55.109
2111, 55.525
2112, 55.295
2113, 55.351
2114, 55.286
2115, 54.477
2116, 54.142
2117, 53.772
2118, 54.518
2119, 54.425
2120, 54.425
2121, 55.842
2122, 56.373
2123, 55.899
2124, 55.43
2125, 55.458
2126, 56.241
2127, 56.036
2128, 56.131
2129, 56.25
2130, 56.213
2131, 55.179
2132, 55.263
2133, 55.215
2134, 55.31
2135, 54.9
2136, 55.543
2137, 55.776
2138, 55.989
2139, 54.759
2140, 54.816
2141, 55.189
2142, 55.031
2143, 54.405
2144, 54.639
2145, 54.518
2146, 54.536
2147, 55.132
2148, 55.449
2149, 55.467
2150, 55.132
2151, 55.001
2152, 56.223
2153, 55.467
2154, 56.131
2155, 56.026
2156, 56.15
2157, 56.297
2158, 56.306
2159, 56.168
2160, 56.456
2161, 55.598
2162, 56.265
2163, 56.941
2164, 56.186
2165, 55.675
2166, 56.045
2167, 56.168
2168, 56.018
2169, 55.708
2170, 56.791
2171, 57.276
2172, 57.716
2173, 57.081
2174, 57.464
2175, 58.488
2176, 58.899
2177, 59.235
2178, 59.877
2179, 59.048
2180, 59.245
2181, 59.915
2182, 59.813
2183, 59.662
2184, 59.245
2185, 60.037
2186, 59.552
2187, 59.963
2188, 59.682
2189, 60.233
2190, 59.335
2191, 60.122
2192, 60.562
2193, 60.261
2194, 60.908
2195, 60.747
2196, 60.766
2197, 60.619
2198, 60.252
2199, 59.786
2200, 59.981
2201, 60.074
2202, 60.113
2203, 60.233
2204, 60.776
2205, 60.747
2206, 60.795
2207, 60.084
2208, 59.711
2209, 59.963
2210, 60.533
2211, 60.438
2212, 60.15
2213, 59.149
2214, 59.325
2215, 59.605
2216, 60.233
2217, 60.329
2218, 60.899
2219, 60.619
2220, 61.16
2221, 61.618
2222, 62.125
2223, 62.499
2224, 62.433
2225, 63.189
2226, 63.451
2227, 62.816
2228, 62.556
2229, 62.228
2230, 62.517
2231, 63.828
2232, 63.397
2233, 63.676
2234, 62.816
2235, 63.862
2236, 63.632
2237, 63.632
2238, 62.919
2239, 62.855
2240, 62.686
2241, 62.041
2242, 60.338
2243, 59.558
2244, 59.812
2245, 59.521
2246, 60.319
2247, 59.932
2248, 57.698
2249, 58.364
2250, 58.524
2251, 58.712
2252, 59.64
2253, 59.567
2254, 59.961
2255, 60.064
2256, 60.514
2257, 60.846
2258, 61.042
2259, 60.611
2260, 60.919
2261, 60.72
2262, 60.467
2263, 60.683
2264, 61.003
2265, 61.539
2266, 62.157
2267, 61.371
2268, 61.766
2269, 61.933
2270, 61.766
2271, 61.746
2272, 61.587
2273, 61.117
2274, 61.099
2275, 60.261
2276, 60.601
2277, 61.022
2278, 61.503
2279, 60.928
2280, 60.739
2281, 60.827
2282, 60.299
2283, 60.27
2284, 59.717
2285, 59.829
2286, 60.375
2287, 62.093
2288, 62.986
2289, 63.071
2290, 62.639
2291, 62.038
2292, 61.454
2293, 61.858
2294, 62.226
2295, 61.727
2296, 60.797
2297, 61.238
2298, 62.028
2299, 62.374
2300, 62.535
2301, 63.012
2302, 63.52
2303, 63.129
2304, 63.276
2305, 63.071
2306, 63.11
2307, 63.316
2308, 63.601
2309, 63.384
2310, 62.901
2311, 62.958
2312, 62.608
2313, 62.712
2314, 62.919
2315, 62.815
2316, 63.673
2317, 63.192
2318, 62.994
2319, 62.241
2320, 62.391
2321, 62.855
2322, 62.08
2323, 62.279
2324, 62.183
2325, 62.249
2326, 62.212
2327, 62.222
2328, 62.608
2329, 62.815
2330, 62.731
2331, 62.467
2332, 62.419
2333, 62.759
2334, 63.306
2335, 63.42
2336, 63.326
2337, 62.825
2338, 62.353
2339, 62.647
2340, 61.919
2341, 62.571
2342, 62.325
2343, 62.901
2344, 62.855
2345, 62.627
2346, 62.259
2347, 62.627
2348, 62.553
2349, 63.21
2350, 63.21
2351, 63.683
2352, 62.958
2353, 63.174
2354, 62.656
2355, 62.485
2356, 62.561
2357, 62.505
2358, 62.588
2359, 62.769
2360, 63.032
2361, 62.588
2362, 61.345
2363, 62.308
2364, 61.692
2365, 60.119
2366, 60.061
2367, 60.174
2368, 59.901
2369, 59.606
2370, 59.341
2371, 58.849
2372, 57.893
2373, 57.921
2374, 58.159
2375, 57.768
2376, 58.288
2377, 58.346
2378, 59.085
2379, 58.896
2380, 59.077
2381, 59.798
2382, 59.825
2383, 59.976
2384, 60.338
2385, 60.762
2386, 60.403
2387, 60.575
2388, 60.279
2389, 60.375
2390, 60.603
2391, 60.641
2392, 60.661
2393, 60.782
2394, 61.152
2395, 60.801
2396, 61.342
2397, 61.779
2398, 61.313
2399, 60.526
2400, 60.203
2401, 60.439
2402, 59.407
2403, 59.466
2404, 59.304
2405, 58.263
2406, 58.366
2407, 57.95
2408, 57.988
2409, 57.741
2410, 57.798
2411, 57.645
2412, 58.159
2413, 58.508
2414, 57.512
2415, 56.149
2416, 56.215
2417, 56.954
2418, 57.068
2419, 55.856
2420, 56.773
2421, 55.484
2422, 54.482
2423, 53.229
2424, 53.431
2425, 53.666
2426, 54.623
2427, 55.619
2428, 56.889
2429, 58.033
2430, 57.408
2431, 58.536
2432, 58.669
2433, 57.2
2434, 58.033
2435, 57.825
2436, 58.47
2437, 58.973
2438, 58.754
2439, 59.306
2440, 60.573
2441, 60.722
2442, 61.647
2443, 62.389
2444, 62.113
2445, 62.028
2446, 61.818
2447, 61.703
2448, 62.323
2449, 61.856
2450, 61.703
2451, 61.627
2452, 61.96
2453, 62.189
2454, 62.123
2455, 62.141
2456, 62.103
2457, 61.96
2458, 62.199
2459, 63.225
2460, 63.362
2461, 63.065
2462, 62.703
2463, 63.065
2464, 62.238
2465, 62.513
2466, 61.522
2467, 60.781
2468, 60.741
2469, 62.113
2470, 63.398
2471, 63.892
2472, 63.854
2473, 64.19
2474, 64.3
2475, 64.587
2476, 65.084
2477, 64.817
2478, 63.618
2479, 63.434
2480, 61.485
2481, 60.83
2482, 61.179
2483, 62.922
2484, 62.314
2485, 62.218
2486, 62.028
2487, 61.485
2488, 60.703
2489, 61.363
2490, 61.115
2491, 61.237
2492, 61.59
2493, 60.684
2494, 60.961
2495, 60.121
2496, 59.356
2497, 60.226
2498, 60.333
2499, 60.741
2500, 60.675
2501, 60.436
2502, 61.0
2503, 61.499
2504, 60.85
2505, 60.924
2506, 60.879
2507, 61.249
2508, 61.718
2509, 62.377
2510, 62.931
2511, 62.941
2512, 63.256
2513, 63.354
2514, 63.383
2515, 62.951
2516, 63.345
2517, 62.97
2518, 63.573
2519, 62.988
2520, 62.731
2521, 62.166
2522, 61.44
2523, 61.356
2524, 60.943
2525, 60.572
2526, 60.761
2527, 60.323
2528, 60.98
2529, 60.811
2530, 61.136
2531, 60.84
2532, 60.445
2533, 60.601
2534, 60.703
2535, 60.207
2536, 60.207
2537, 60.399
2538, 60.896
2539, 60.722
2540, 60.85
2541, 60.371
2542, 60.592
2543, 60.333
2544, 60.63
2545, 60.542
2546, 60.694
2547, 60.639
2548, 60.512
2549, 60.226
2550, 60.236
2551, 60.074
2552, 60.045
2553, 59.959
2554, 60.112
2555, 60.169
2556, 60.502
2557, 60.292
2558, 60.282
2559, 60.062
2560, 59.602
2561, 61.504
2562, 61.414
2563, 60.493
2564, 60.592
2565, 60.493
2566, 60.65
2567, 60.552
2568, 60.982
2569, 61.773
2570, 62.617
2571, 62.607
2572, 63.048
2573, 63.46
2574, 62.857
2575, 62.338
2576, 61.935
2577, 61.424
2578, 61.915
2579, 61.925
2580, 61.233
2581, 61.36
2582, 61.406
2583, 61.589
2584, 61.377
2585, 61.724
2586, 61.214
2587, 61.599
2588, 61.684
2589, 62.203
2590, 62.013
2591, 61.714
2592, 62.319
2593, 62.233
2594, 62.674
2595, 62.693
2596, 62.896
2597, 62.587
2598, 61.886
2599, 61.724
2600, 61.915
2601, 61.204
2602, 61.233
2603, 61.311
2604, 61.252
2605, 61.302
2606, 61.743
2607, 60.916
2608, 60.89
2609, 61.147
2610, 61.704
2611, 61.396
2612, 61.396
2613, 61.743
2614, 61.387
2615, 61.414
2616, 60.572
2617, 60.493
2618, 59.976
2619, 59.295
2620, 59.207
2621, 60.095
2622, 64.002
2623, 65.112
2624, 65.391
2625, 64.898
2626, 65.526
2627, 66.373
2628, 65.95
2629, 66.355
2630, 67.443
2631, 66.732
2632, 66.345
2633, 66.586
2634, 67.397
2635, 67.61
2636, 67.358
2637, 66.662
2638, 65.659
2639, 65.216
2640, 63.808
2641, 63.219
2642, 64.348
2643, 65.265
2644, 65.314
2645, 64.975
2646, 63.47
2647, 64.127
2648, 64.994
2649, 64.889
2650, 65.613
2651, 65.381
2652, 64.541
2653, 65.013
2654, 64.358
2655, 65.989
2656, 66.596
2657, 65.998
2658, 64.772
2659, 65.236
2660, 64.378
2661, 64.318
2662, 63.277
2663, 63.209
2664, 61.879
2665, 62.642
2666, 63.626
2667, 64.86
2668, 65.574
2669, 65.989
2670, 65.284
2671, 66.249
2672, 67.165
2673, 67.772
2674, 68.073
2675, 67.676
2676, 67.204
2677, 67.222
2678, 67.367
2679, 67.513
2680, 67.994
2681, 67.397
2682, 68.767
2683, 68.871
2684, 68.776
2685, 68.439
2686, 69.306
2687, 69.78
2688, 70.955
2689, 73.338
2690, 72.409
2691, 70.927
2692, 71.14
2693, 70.955
2694, 70.17
2695, 70.743
2696, 70.763
2697, 68.573
2698, 69.272
2699, 69.834
2700, 69.706
2701, 71.12
2702, 71.363
2703, 71.954
2704, 71.526
2705, 71.944
2706, 72.516
2707, 72.65
2708, 72.138
2709, 72.612
2710, 71.605
2711, 71.15
2712, 72.011
2713, 71.887
2714, 71.284
2715, 70.783
2716, 71.12
2717, 70.57
2718, 70.269
2719, 70.763
2720, 71.14
2721, 69.987
2722, 68.872
2723, 69.406
2724, 70.037
2725, 71.15
2726, 70.995
2727, 71.392
2728, 71.712
2729, 71.304
2730, 70.366
2731, 69.814
2732, 69.416
2733, 68.942
2734, 67.567
2735, 67.682
2736, 67.624
2737, 67.644
2738, 66.744
2739, 66.588
2740, 65.929
2741, 65.978
2742, 65.696
2743, 64.602
2744, 66.103
2745, 65.043
2746, 68.574
2747, 68.342
2748, 68.75
2749, 70.92
2750, 70.345
2751, 69.381
2752, 71.163
2753, 70.278
2754, 69.188
2755, 71.046
2756, 72.388
2757, 72.174
2758, 72.301
2759, 73.253
2760, 71.941
2761, 71.376
2762, 71.308
2763, 70.9
2764, 70.823
2765, 70.89
2766, 71.902
2767, 72.321
2768, 71.337
2769, 71.707
2770, 72.476
2771, 72.388
2772, 73.157
2773, 73.935
2774, 73.663
2775, 73.73
2776, 73.788
2777, 73.321
2778, 73.722
2779, 73.196
2780, 74.09
2781, 74.47
2782, 75.16
2783, 74.802
2784, 75.278
2785, 75.948
2786, 76.018
2787, 75.288
2788, 76.182
2789, 76.376
2790, 76.591
2791, 76.28
2792, 76.94
2793, 76.767
2794, 75.627
2795, 75.86
2796, 75.249
2797, 75.259
2798, 75.259
2799, 75.483
2800, 76.065
2801, 76.318
2802, 77.097
2803, 77.466
2804, 77.291
2805, 77.604
2806, 76.445
2807, 77.515
2808, 77.162
2809, 78.052
2810, 78.081
2811, 77.426
2812, 74.215
2813, 75.044
2814, 73.971
2815, 73.784
2816, 74.273
2817, 74.488
2818, 74.752
2819, 75.269
2820, 75.026
2821, 75.805
2822, 75.161
2823, 75.58
2824, 73.628
2825, 73.481
2826, 73.09
2827, 73.56
2828, 73.033
2829, 74.585
2830, 74.557
2831, 74.634
2832, 75.327
2833, 75.445
2834, 75.395
2835, 75.533
2836, 75.386
2837, 75.279
2838, 75.67
2839, 75.894
2840, 75.962
2841, 76.362
2842, 74.976
2843, 74.644
2844, 74.527
2845, 74.702
2846, 74.557
2847, 75.797
2848, 75.854
2849, 76.471
2850, 78.257
2851, 74.947
2852, 72.847
2853, 73.912
2854, 74.917
2855, 77.272
2856, 77.31
2857, 76.869
2858, 76.889
2859, 76.645
2860, 77.915
2861, 78.315
2862, 78.52
2863, 78.345
2864, 78.305
2865, 78.042
2866, 78.033
2867, 77.749
2868, 78.414
2869, 78.061
2870, 78.569
2871, 78.364
2872, 78.708
2873, 78.139
2874, 77.805
2875, 76.628
2876, 75.804
2877, 75.09
2878, 75.1
2879, 75.257
2880, 75.07
2881, 74.659
2882, 74.472
2883, 74.707
2884, 74.59
2885, 74.08
2886, 74.002
2887, 73.669
2888, 74.286
2889, 75.305
2890, 75.257
2891, 75.57
2892, 75.804
2893, 76.041
2894, 76.521
2895, 76.913
2896, 77.217
2897, 77.128
2898, 76.433
2899, 76.423
2900, 77.59
2901, 77.884
2902, 78.698
2903, 77.638
2904, 75.924
2905, 76.952
2906, 76.002
2907, 75.834
2908, 76.354
2909, 76.059
2910, 77.051
2911, 77.157
2912, 76.863
2913, 77.884
2914, 77.227
2915, 76.511
2916, 76.198
2917, 77.051
2918, 75.678
2919, 75.874
2920, 75.824
2921, 74.59
2922, 74.599
2923, 75.119
2924, 74.14
2925, 74.443
2926, 73.58
2927, 74.159
2928, 74.09
2929, 74.522
2930, 74.688
2931, 74.874
2932, 74.963
2933, 74.462
2934, 75.629
2935, 75.473
2936, 75.473
2937, 74.757
2938, 74.767
2939, 71.571
2940, 70.332
2941, 69.524
2942, 69.82
2943, 69.77
2944, 70.302
2945, 73.175
2946, 74.563
2947, 73.944
2948, 70.322
2949, 70.734
2950, 72.368
2951, 72.241
2952, 72.427
2953, 72.437
2954, 72.507
2955, 73.087
2956, 74.317
2957, 74.869
2958, 74.889
2959, 75.283
2960, 74.505
2961, 72.044
2962, 72.929
2963, 73.195
2964, 72.241
2965, 72.653
2966, 72.338
2967, 73.049
2968, 73.589
2969, 73.451
2970, 73.215
2971, 71.916
2972, 71.827
2973, 71.797
2974, 72.653
2975, 72.831
2976, 72.221
2977, 71.886
2978, 72.467
2979, 73.019
2980, 72.576
2981, 72.546
2982, 72.31
2983, 71.886
2984, 73.078
2985, 72.329
2986, 72.358
2987, 72.537
2988, 71.69
2989, 71.906
2990, 72.191
2991, 72.358
2992, 72.201
2993, 72.338
2994, 71.6
2995, 70.528
2996, 71.325
2997, 72.398
2998, 72.29
2999, 72.182
3000, 72.3
3001, 71.924
3002, 72.151
3003, 73.11
3004, 72.508
3005, 72.952
3006, 72.528
3007, 71.914
3008, 72.725
3009, 72.745
3010, 73.951
3011, 73.595
3012, 73.002
3013, 72.378
3014, 73.367
3015, 73.072
3016, 73.753
3017, 73.427
3018, 73.289
3019, 73.526
3020, 73.644
3021, 73.674
3022, 75.207
3023, 74.96
3024, 75.187
3025, 74.802
3026, 74.623
3027, 75.088
3028, 74.999
3029, 75.929
3030, 75.889
3031, 75.671
3032, 76.373
3033, 76.116
3034, 76.216
3035, 76.967
3036, 75.909
3037, 75.988
3038, 76.295
3039, 75.761
3040, 75.761
3041, 76.206
3042, 76.176
3043, 75.998
3044, 76.126
3045, 75.592
3046, 75.879
3047, 75.227
3048, 75.671
3049, 75.305
3050, 76.028
3051, 76.056
3052, 75.375
3053, 74.95
3054, 76.403
3055, 76.7
3056, 76.68
3057, 76.947
3058, 77.115
3059, 77.421
3060, 77.847
3061, 78.45
3062, 77.906
3063, 79.399
3064, 79.151
3065, 79.617
3066, 79.865
3067, 80.799
3068, 81.315
3069, 81.911
3070, 81.881
3071, 82.268
3072, 81.931
3073, 81.831
3074, 82.03
3075, 82.189
3076, 81.683
3077, 81.543
3078, 81.762
3079, 82.238
3080, 82.586
3081, 82.784
3082, 83.539
3083, 83.757
3084, 83.926
3085, 84.392
3086, 85.634
3087, 85.703
3088, 85.226
3089, 84.859
3090, 85.068
3091, 84.631
3092, 85.028
3093, 84.82
3094, 85.554
3095, 85.624
3096, 85.604
3097, 85.326
3098, 86.12
3099, 86.259
3100, 86.368
3101, 86.19
3102, 86.17
3103, 86.507
3104, 85.742
3105, 86.298
3106, 85.862
3107, 86.229
3108, 86.448
3109, 86.656
3110, 86.676
3111, 87.45
3112, 87.658
3113, 87.53
3114, 88.334
3115, 87.986
3116, 88.78
3117, 89.138
3118, 89.088
3119, 89.436
3120, 89.048
3121, 88.86
3122, 89.129
3123, 88.362
3124, 87.734
3125, 87.674
3126, 82.005
3127, 80.63
3128, 82.205
3129, 81.946
3130, 81.946
3131, 82.055
3132, 82.434
3133, 82.434
3134, 82.175
3135, 81.208
3136, 81.836
3137, 82.603
3138, 82.444
3139, 83.241
3140, 81.826
3141, 81.846
3142, 81.188
3143, 81.816
3144, 81.308
3145, 80.78
3146, 82.085
3147, 81.557
3148, 81.697
3149, 82.663
3150, 83.301
3151, 83.57
3152, 82.942
3153, 82.543
3154, 83.301
3155, 83.51
3156, 84.805
3157, 84.885
3158, 84.187
3159, 84.556
3160, 84.396
3161, 85.124
3162, 85.243
3163, 85.801
3164, 85.831
3165, 85.403
3166, 86.439
3167, 86.429
3168, 86.22
3169, 86.758
3170, 85.991
3171, 87.555
3172, 88.103
3173, 87.814
3174, 87.814
3175, 88.252
3176, 88.133
3177, 88.143
3178, 88.033
3179, 88.162
3180, 88.511
3181, 88.611
3182, 88.651
3183, 88.272
3184, 88.312
3185, 88.87
3186, 88.7
3187, 88.79
3188, 88.162
3189, 88.611
3190, 87.605
3191, 86.14
3192, 87.07
3193, 87.41
3194, 86.6
3195, 86.94
3196, 85.85
3197, 85.72
3198, 85.73
3199, 84.76
3200, 84.91
