15.0, 43.12546957175058
16.0, 46.20449264136334
17.0, 42.863019333607646
18.0, 39.23192771084343
19.0, 27.314636957357024
20.0, 23.678902783380465
21.0, 32.54934901301978
22.0, 37.044296354370815
23.0, 53.258221680876964
24.0, 56.95213285574738
25.0, 59.890776699029125
26.0, 58.55799373040759
27.0, 64.39618295491941
28.0, 69.70551378446116
29.0, 71.71623296158617
30.0, 59.17622523461937
31.0, 58.733055265901974
32.0, 66.08089260808927
33.0, 59.70262096774195
34.0, 50.52401746724889
35.0, 43.92561983471073
36.0, 48.39323065221525
37.0, 38.85293461280965
38.0, 36.053013046179316
39.0, 35.93360995850625
40.0, 32.725816142599626
41.0, 33.70830866390371
42.0, 25.862068965517253
43.0, 27.489899877041978
44.0, 28.38229960101563
45.0, 32.832251451998644
46.0, 32.41663801993812
47.0, 37.36116430486404
48.0, 51.463187325256285
49.0, 54.511352418558744
50.0, 52.75784293623127
51.0, 54.38526231477773
52.0, 56.3953488372093
53.0, 52.30524642289348
54.0, 50.82763186934451
55.0, 47.992823503027566
56.0, 60.286958749679755
57.0, 63.39159187529525
58.0, 74.74178403755866
59.0, 66.22159756383226
60.0, 62.88919413919416
61.0, 63.32579185520364
62.0, 57.50982961992137
63.0, 50.78703703703705
64.0, 50.315494274363175
65.0, 49.15092083233679
66.0, 48.250763089927204
67.0, 49.89770402364174
68.0, 52.917068466730974
69.0, 50.18289894833107
70.0, 49.39619136089179
71.0, 39.07563025210083
72.0, 28.826666666666682
73.0, 36.15192680898253
74.0, 37.73148148148148
75.0, 35.91423466349012
76.0, 38.33810888252147
77.0, 46.73419490045404
78.0, 45.00540930400285
79.0, 39.90049751243775
80.0, 42.68985095812632
81.0, 44.50171821305839
82.0, 45.85694050991497
83.0, 47.12518195050943
84.0, 48.909985935302366
85.0, 51.633259094283616
86.0, 61.330049261083744
87.0, 62.02487906012444
88.0, 63.52179836512259
89.0, 64.3831060857998
90.0, 59.090909090909136
91.0, 52.10166177908116
92.0, 46.835443037974734
93.0, 61.1621799080762
94.0, 71.3147410358566
95.0, 64.15416098226473
96.0, 60.11505273250246
97.0, 63.741104710267734
98.0, 55.07051712558771
99.0, 53.21219987021416
100.0, 51.61073825503355
101.0, 50.31013094417637
102.0, 45.46941445861959
103.0, 45.29044962257959
104.0, 43.56060606060602
105.0, 51.77524991382279
106.0, 50.250920040147214
107.0, 45.55108019040646
108.0, 33.56667833391664
109.0, 37.48629886737297
110.0, 45.45454545454543
111.0, 47.32650739476681
112.0, 52.261306532663255
113.0, 53.08379413015738
114.0, 47.075471698113226
115.0, 43.447580645161324
116.0, 52.58985200845664
117.0, 53.30557001561694
118.0, 51.48315736551034
119.0, 50.462012320328554
120.0, 42.92576419213971
121.0, 30.549251021334584
122.0, 39.741518578352164
123.0, 39.54619124797405
124.0, 33.59050445103854
125.0, 29.074889867841364
126.0, 28.25040128410913
127.0, 32.38265002970881
128.0, 29.159978598180814
129.0, 37.31060606060599
130.0, 32.250123092072826
131.0, 41.22170012815032
132.0, 46.465116279069726
133.0, 44.61020211742057
134.0, 60.14372581536767
135.0, 65.77992744860941
136.0, 62.8764597418562
137.0, 56.02795573675017
138.0, 60.533193936225885
139.0, 52.42191036668174
140.0, 45.64446196294837
141.0, 46.57109647423481
142.0, 53.41269841269842
143.0, 47.02166064981955
144.0, 47.55819260611596
145.0, 28.65685372585105
146.0, 26.95652173913058
147.0, 34.723926380368155
148.0, 52.795031055900616
149.0, 49.21422663358149
150.0, 48.426478567552905
151.0, 51.07632093933466
152.0, 48.25547013601416
153.0, 60.13031337263422
154.0, 68.19141449683316
155.0, 58.02163833075736
156.0, 57.25527226943655
157.0, 58.89830508474572
158.0, 55.45739526930748
159.0, 65.42584871947591
160.0, 67.08935417281037
161.0, 67.93103448275863
162.0, 60.676532769556
163.0, 68.98685228151585
164.0, 72.16739044611137
165.0, 74.86631016042783
166.0, 42.53014510525242
167.0, 40.78753421773004
168.0, 41.483343808925206
169.0, 48.502862175253156
170.0, 51.32154006243495
171.0, 49.691948162311455
172.0, 56.20258355546442
173.0, 55.64784053156147
174.0, 55.499999999999986
175.0, 52.951541850220266
176.0, 52.50166777851903
177.0, 50.40561280420959
178.0, 53.08027380211575
179.0, 48.54054054054052
180.0, 80.58147882268474
181.0, 82.28552717747208
182.0, 81.3034891375905
183.0, 80.1398601398601
184.0, 73.71016691957509
185.0, 74.96229260935142
186.0, 73.34403853873944
187.0, 72.52792718245755
188.0, 72.52792718245759
189.0, 66.7069729947601
190.0, 60.26936026936023
191.0, 68.48266546600628
192.0, 49.07258064516123
193.0, 63.9256458727158
194.0, 71.07519788918205
195.0, 62.84153005464481
196.0, 64.40860215053755
197.0, 65.4848800834202
198.0, 65.14522821576759
199.0, 61.83591123066574
200.0, 57.010346057795196
201.0, 56.97965012495538
202.0, 58.70459218642902
203.0, 57.348510210913936
204.0, 56.37206223104934
205.0, 46.530479896238624
206.0, 48.77634262406527
207.0, 29.248826291079823
208.0, 26.809130645944606
209.0, 27.64146219328991
210.0, 24.15702063412178
211.0, 30.199166280685517
212.0, 30.79829948039682
213.0, 35.36231884057966
214.0, 34.430856067732776
215.0, 27.308882015024267
216.0, 25.934263845114828
217.0, 42.14402618657936
218.0, 42.439225381128935
219.0, 50.60240963855422
220.0, 66.3185378590079
221.0, 68.94559460760719
222.0, 68.50585937500011
223.0, 70.39638735574509
224.0, 69.11330049261097
225.0, 58.83297644539612
226.0, 63.905325443786985
227.0, 63.552417164584455
228.0, 74.2438563327033
229.0, 67.97922977066202
230.0, 70.3644373247897
231.0, 65.4043945769051
232.0, 68.65934065934059
233.0, 60.679611650485434
234.0, 56.738197424892675
235.0, 65.72594355661334
236.0, 64.75382003395582
237.0, 62.95807197094748
238.0, 58.35373317013461
239.0, 64.05190209377767
240.0, 52.69415633695928
241.0, 54.05405405405407
242.0, 49.77168949771685
243.0, 65.62877142167511
244.0, 48.36495761001212
245.0, 49.47659490420698
246.0, 47.79591836734693
247.0, 47.55329949238578
248.0, 48.09455879356024
249.0, 37.09677419354838
250.0, 37.192406843215345
251.0, 37.07077785564119
252.0, 41.18821767348976
253.0, 35.098834262544315
254.0, 40.49707602339178
255.0, 43.44080044469147
256.0, 43.013161579389546
257.0, 22.9452054794521
258.0, 33.95843892549415
259.0, 31.131078224101614
260.0, 35.97051597051599
261.0, 41.590909090909136
262.0, 50.217917675544705
263.0, 52.989269289729194
264.0, 54.147582697201024
265.0, 58.95404120443747
266.0, 60.458015267175554
267.0, 69.76744186046523
268.0, 76.1980830670928
269.0, 61.19658119658125
270.0, 61.78451178451186
271.0, 67.21611721611723
272.0, 70.94072164948466
273.0, 63.3182112767336
274.0, 50.0
275.0, 61.5025664955669
276.0, 56.55608214849924
277.0, 61.22850122850119
278.0, 48.72102318145484
279.0, 54.712319096364254
280.0, 42.47973581507061
281.0, 39.981302586475564
282.0, 38.03088803088808
283.0, 35.32576210400484
284.0, 33.99638336347199
285.0, 37.289138798461074
286.0, 38.43807199511896
287.0, 41.01053936763798
288.0, 45.55444555444557
289.0, 43.15020862308759
290.0, 39.403187521193615
291.0, 30.04552352048556
292.0, 32.835820895522374
293.0, 30.816535702083996
294.0, 37.536412817311664
295.0, 37.69327204346009
296.0, 39.29153094462529
297.0, 50.19550342130986
298.0, 53.314527503526065
299.0, 52.98295454545459
300.0, 56.46646207803601
301.0, 59.61773078487192
302.0, 61.70458927882765
303.0, 53.67012089810023
304.0, 54.066985645932974
305.0, 59.90361445783141
306.0, 62.02594810379246
307.0, 52.72525027808674
308.0, 55.79752795762212
309.0, 50.50612679808201
310.0, 45.336787564766844
311.0, 46.09095554420034
312.0, 44.091149973502944
313.0, 34.4744455159113
314.0, 30.30769230769225
315.0, 19.95438996579243
316.0, 13.812154696132524
317.0, 13.957816377171127
318.0, 35.19668737060036
319.0, 40.86538461538453
320.0, 46.261980830670886
321.0, 48.46050870147257
322.0, 46.32117722328848
323.0, 54.849726775956285
324.0, 50.88719898605838
325.0, 43.992606284657995
326.0, 37.403314917127034
327.0, 36.35875402792686
328.0, 32.69529229177439
329.0, 42.22631094756208
330.0, 39.434048379735266
331.0, 36.180904522613076
332.0, 22.5609756097562
333.0, 29.139072847682215
334.0, 24.761904761904816
335.0, 31.337325349301466
336.0, 40.41394335511987
337.0, 35.77854671280279
338.0, 42.3474848376739
339.0, 54.30157261794634
340.0, 41.32832668387703
341.0, 52.17488289092126
342.0, 51.27137220517317
343.0, 48.13345776948203
344.0, 43.240410815342706
345.0, 50.27422303473489
346.0, 50.98117741289546
347.0, 42.82879307234349
348.0, 40.790378006872864
349.0, 39.19181224633844
350.0, 34.08968125337657
351.0, 38.161909890504404
352.0, 43.057851239669425
353.0, 39.57200491141906
354.0, 45.97513755858978
355.0, 47.53611715812391
356.0, 51.909144311729
357.0, 49.90551776266061
358.0, 55.227938101212885
359.0, 56.60721524118364
360.0, 55.038918476034425
361.0, 60.79185520361993
362.0, 69.81881360138996
363.0, 71.59542163046021
364.0, 76.09732824427482
365.0, 70.08769850675519
366.0, 61.023622047244096
367.0, 55.940330314331355
368.0, 62.51860672819295
369.0, 51.709883502442715
370.0, 46.01878317680685
371.0, 58.8084795321638
372.0, 65.81277672359266
373.0, 54.139900071377575
374.0, 54.82471991326345
375.0, 54.31435732187612
376.0, 53.413654618473856
377.0, 42.56656804733726
378.0, 38.05637982195847
379.0, 39.782861574253566
380.0, 51.93350198771238
381.0, 59.39139559286469
382.0, 60.29829545454542
383.0, 57.19097339171437
384.0, 57.91268758526608
385.0, 52.410335518704215
386.0, 34.28681870892929
387.0, 32.754800590841995
388.0, 32.75480059084194
389.0, 36.04225924420966
390.0, 43.94586894586896
391.0, 51.962962962963
392.0, 50.6498194945848
393.0, 48.0314960629921
394.0, 39.52191235059756
395.0, 31.53580672993961
396.0, 39.15895061728403
397.0, 39.55572876071709
398.0, 35.27980535279809
399.0, 41.446540880503164
400.0, 56.92687442147481
401.0, 60.650887573964475
402.0, 63.50681536555142
403.0, 55.812687176694794
404.0, 45.96956031567083
405.0, 42.41369306643458
406.0, 54.00358147863907
407.0, 61.77890724269382
408.0, 62.642821659215116
409.0, 65.52138395002405
410.0, 63.81744831064045
411.0, 68.3847102342787
412.0, 75.7492507492508
413.0, 74.90307573016287
414.0, 71.10119047619054
415.0, 73.8713667285096
416.0, 72.34947643979059
417.0, 88.14669286182061
418.0, 96.59131682813052
419.0, 94.75536782822947
420.0, 86.78844519966015
421.0, 86.00989653621232
422.0, 85.41275797373359
423.0, 72.40143369175628
424.0, 71.8849840255591
425.0, 63.3555133079848
426.0, 46.51061985262242
427.0, 51.225296442687764
428.0, 56.76243868255079
429.0, 60.142118863049085
430.0, 61.55763239875389
431.0, 58.811748998664854
432.0, 53.83440268866485
433.0, 58.58676207513418
434.0, 67.41901221455126
435.0, 71.23769338959212
436.0, 71.87714875085949
437.0, 76.13498421947074
438.0, 77.19257540603246
439.0, 80.2997858672377
440.0, 89.54629875298491
441.0, 85.72721786360896
442.0, 84.32217434537621
443.0, 77.19651240778009
444.0, 77.35597735597743
445.0, 77.0192632646165
446.0, 86.72785033533363
447.0, 75.86671154493438
448.0, 75.79338284942608
449.0, 64.13849958779888
450.0, 53.977062523122456
451.0, 53.404099560761345
452.0, 46.12769172648284
453.0, 42.65454545454545
454.0, 40.47619047619047
455.0, 45.568783068783056
456.0, 47.41214057507988
457.0, 48.41761827079932
458.0, 38.441407385867954
459.0, 35.96491228070174
460.0, 36.29250677099005
461.0, 38.03216650898769
462.0, 22.451838879159325
463.0, 34.363057324840696
464.0, 48.78567091681848
465.0, 46.64731494920177
466.0, 43.90710382513659
467.0, 48.78836833602585
468.0, 50.36131183991106
469.0, 41.07873210633948
470.0, 40.28497409326427
471.0, 42.77777777777779
472.0, 50.27506112469439
473.0, 56.228140973903685
474.0, 56.774707757704576
475.0, 62.919030428055706
476.0, 66.088840736728
477.0, 55.59566787003612
478.0, 51.98198198198195
479.0, 50.0
480.0, 63.59508547008548
481.0, 57.566137566137556
482.0, 59.10416114497745
483.0, 68.95087932080051
484.0, 69.53287711990481
485.0, 67.8496868475992
486.0, 65.45295659772796
487.0, 61.987179487179525
488.0, 59.563586771224024
489.0, 51.4245014245014
490.0, 51.923768428622864
491.0, 56.252434748733904
492.0, 54.86334405144697
493.0, 82.31132075471697
494.0, 75.35155213584508
495.0, 80.94182825484765
496.0, 81.82778658214477
497.0, 71.08938547486036
498.0, 70.67988668555245
499.0, 73.18889641164523
500.0, 72.72931150482174
501.0, 69.86586493987052
502.0, 73.51626016260165
503.0, 76.87564234326828
504.0, 68.13627254509018
505.0, 70.33229300532406
506.0, 70.56466302367944
507.0, 48.650904033379675
508.0, 49.08784731967441
509.0, 51.30201342281882
510.0, 49.00196795052013
511.0, 59.26285160038799
512.0, 58.470665787738966
513.0, 59.808612440191425
514.0, 47.6009139375476
515.0, 52.25790871770104
516.0, 45.671887881286054
517.0, 41.370967741935445
518.0, 54.433792690233666
519.0, 54.624105011933196
520.0, 60.8090698273641
521.0, 59.01475368842209
522.0, 65.72478750287155
523.0, 61.7945690672963
524.0, 56.40176600441498
525.0, 55.096110862762615
526.0, 54.08664582402857
527.0, 48.51322875204867
528.0, 63.67570686670511
529.0, 63.71757925072041
530.0, 64.24311275205903
531.0, 69.25094724570094
532.0, 64.21793694520963
533.0, 63.627878033602926
534.0, 47.540381791483114
535.0, 62.890490902849315
536.0, 57.25583234480033
537.0, 66.26633698339815
538.0, 73.68421052631575
539.0, 62.09864283349879
540.0, 80.00728332119445
541.0, 82.82991729593668
542.0, 81.71021377672207
543.0, 81.50748198780713
544.0, 81.52795718767298
545.0, 79.79236188357434
546.0, 81.51515151515153
547.0, 66.75039246467823
548.0, 72.07274913572826
549.0, 70.15740443302283
550.0, 69.37010443864234
551.0, 67.86509159390519
552.0, 68.616929202008
553.0, 75.28430629264601
554.0, 54.91009681881051
555.0, 33.41433778857842
556.0, 47.403358063256555
557.0, 41.274915381722394
558.0, 36.92222015964358
559.0, 39.858233369683745
560.0, 40.517706273593376
561.0, 51.897891231964486
562.0, 45.648357160772505
563.0, 50.09212344541682
564.0, 49.36450295052197
565.0, 43.94037589112119
566.0, 46.51643580731862
567.0, 48.11472121941433
568.0, 50.173343605547004
569.0, 67.7503250975292
570.0, 61.62178891983902
571.0, 71.05638829407566
572.0, 74.51347305389228
573.0, 62.52624212736182
574.0, 51.0953226761397
575.0, 52.14368482039392
576.0, 48.76373626373621
577.0, 33.990659055526805
578.0, 41.390807335079785
579.0, 53.36891260840557
580.0, 57.42131979695427
581.0, 48.49310094408136
582.0, 44.861431870669755
583.0, 39.07795473595977
584.0, 35.303542816450076
585.0, 33.23278029160382
586.0, 31.86565964968662
587.0, 34.966216216216196
588.0, 43.3448873483536
589.0, 43.374328771869024
590.0, 41.32013201320133
591.0, 54.39847836424157
592.0, 52.45413981160137
593.0, 47.814257210230366
594.0, 42.50599520383692
595.0, 46.93292144748456
596.0, 43.83759274525962
597.0, 57.69317924314528
598.0, 62.73453093812373
599.0, 69.09757588103487
600.0, 70.35884671230035
601.0, 73.43372374047223
602.0, 75.19097222222221
603.0, 61.7594786729858
604.0, 66.94188631311525
605.0, 61.97954711468223
606.0, 52.32067510548524
607.0, 47.670306012609586
608.0, 42.521153018786755
609.0, 41.28951399526526
610.0, 48.059621324023134
611.0, 47.208953186843196
612.0, 45.92478680274012
613.0, 44.4173013363989
614.0, 41.702644360496514
615.0, 39.56643356643359
616.0, 30.64883756268047
617.0, 55.838943552563435
618.0, 50.105683419445754
619.0, 53.744829087742225
620.0, 55.85473469849532
621.0, 53.424954009306326
622.0, 49.58320779351211
623.0, 58.581715431592386
624.0, 56.47092633394003
625.0, 51.091025289874906
626.0, 47.78112072207596
627.0, 47.94751640112467
628.0, 49.38700646780577
629.0, 49.957048773503864
630.0, 47.52996730839085
631.0, 31.066934545839118
632.0, 39.247139343385776
633.0, 36.06797209092961
634.0, 39.9303135888502
635.0, 42.96962879640047
636.0, 47.876340342570685
637.0, 30.499452011899237
638.0, 27.640349577840382
639.0, 31.053419870194773
640.0, 38.189223057644185
641.0, 34.442815249266886
642.0, 35.60169748408613
643.0, 32.276059929869334
644.0, 34.96805387670527
645.0, 50.156533201515884
646.0, 51.915434748052796
647.0, 49.65046604527296
648.0, 52.06781809538902
649.0, 53.7191433709335
650.0, 57.67948042829558
651.0, 70.2360291565428
652.0, 77.12689257390042
653.0, 79.14345403899713
654.0, 78.54584527220621
655.0, 88.56997282608688
656.0, 88.87184730743016
657.0, 88.10772997551592
658.0, 93.85278620469427
659.0, 86.18304363249385
660.0, 83.8616117671432
661.0, 72.19827586206901
662.0, 66.65391237803715
663.0, 72.3621399176955
664.0, 67.50614250614255
665.0, 63.63636363636365
666.0, 62.50221513379412
667.0, 72.88222478533903
668.0, 64.57338719549517
669.0, 71.52695789059428
670.0, 73.71826291540043
671.0, 66.61351758348832
672.0, 64.8872740823551
673.0, 69.66564803163757
674.0, 63.80409258638041
675.0, 68.25666726328976
676.0, 72.47269442391392
677.0, 61.12312683454346
678.0, 64.04682274247489
679.0, 64.79257641921396
680.0, 66.04241877256315
681.0, 49.55545156761814
682.0, 54.205231388329985
683.0, 38.761149653121905
684.0, 38.37023738280471
685.0, 48.68261045804622
686.0, 44.74257425742576
687.0, 37.2183449651047
688.0, 40.7577246424282
689.0, 38.316310739709074
690.0, 30.61390275037718
691.0, 38.273732586528844
692.0, 44.44157187176837
693.0, 35.47023197348874
694.0, 34.199487298997866
695.0, 58.60600627521292
696.0, 50.71645225394834
697.0, 52.873187220586644
698.0, 48.11680941079351
699.0, 40.17779705117083
700.0, 49.20780012187691
701.0, 57.961346021779676
702.0, 58.77347417840378
703.0, 62.51407513563313
704.0, 56.2077385424493
705.0, 58.1079867038002
706.0, 51.95593315283352
707.0, 55.48354935194414
708.0, 47.93738489871087
709.0, 36.833873310244684
710.0, 37.57693184408481
711.0, 41.48623653574147
712.0, 54.31253667123018
713.0, 60.62888344944455
714.0, 54.926950575069945
715.0, 42.341892296932755
716.0, 42.11634904714141
717.0, 38.80582891748675
718.0, 39.37211981566818
719.0, 34.5687331536388
720.0, 41.47743071647049
721.0, 42.10179697055228
722.0, 42.10179697055228
723.0, 45.698402894202765
724.0, 49.197302175358615
725.0, 40.47391719468796
726.0, 35.8585858585859
727.0, 27.21063319180358
728.0, 26.848816029143904
729.0, 27.803451853249086
730.0, 24.778913024813264
731.0, 25.582838400851003
732.0, 36.417256488035065
733.0, 35.72491320879486
734.0, 34.85254691689008
735.0, 40.659699542782484
736.0, 45.263821357824604
737.0, 35.164344408717426
738.0, 42.98792518348986
739.0, 50.239484455281726
740.0, 39.9983529605534
741.0, 39.82779827798278
742.0, 40.300365084633256
743.0, 42.538097740409874
744.0, 54.60219707057258
745.0, 60.736995326744804
746.0, 59.2380497892309
747.0, 64.1947261663286
748.0, 58.37934394283859
749.0, 56.32242672119973
750.0, 54.31598113051394
751.0, 60.84446048357994
752.0, 53.27226463104327
753.0, 53.267508143322495
754.0, 66.09008199483321
755.0, 74.8791040977348
756.0, 76.09932747025347
757.0, 74.20860133686466
758.0, 56.87074829931971
759.0, 51.17819189896811
760.0, 35.71751923947485
761.0, 31.389917861169252
762.0, 28.95988112927192
763.0, 29.065281899109777
764.0, 27.747875354107606
765.0, 39.6973637545809
766.0, 39.65517241379308
767.0, 37.35441951697926
768.0, 28.32486109469201
769.0, 27.957992998833106
770.0, 43.542741341193796
771.0, 42.39461883408071
772.0, 50.91262855554527
773.0, 52.894105094691945
774.0, 60.93938550078902
775.0, 59.247477960556246
776.0, 63.5875926648459
777.0, 62.29133545310019
778.0, 68.20105274022092
779.0, 68.05598755832042
780.0, 69.9925539836188
781.0, 68.78860852266786
782.0, 76.58739321172945
783.0, 78.48897016801926
784.0, 68.20027063599468
785.0, 70.54432348367028
786.0, 71.066300030553
787.0, 57.19602977667492
788.0, 49.57237372922384
789.0, 56.708706883452344
790.0, 70.491394362684
791.0, 77.50439367311074
792.0, 72.85714285714288
793.0, 70.50119829113265
794.0, 64.61803561171743
795.0, 66.80123932025163
796.0, 67.29257237998337
797.0, 67.12532539977687
798.0, 66.92621431219872
799.0, 68.11320754716986
800.0, 65.37240036881472
801.0, 72.63226649248863
802.0, 72.78280789789467
803.0, 70.89021117722558
804.0, 63.61382528802686
805.0, 37.42563547863701
806.0, 43.773873185637854
807.0, 37.401658515840964
808.0, 56.203918264166845
809.0, 52.94250792213678
810.0, 47.688838782412645
811.0, 47.39229024943313
812.0, 50.707603741904585
813.0, 49.88201982067015
814.0, 51.228473019517786
815.0, 42.50657318141982
816.0, 49.90103364855948
817.0, 47.95563288386252
818.0, 52.14957008598283
819.0, 67.96292109427988
820.0, 69.20234731580092
821.0, 58.558383524383125
822.0, 45.66160520607377
823.0, 45.436724025266784
824.0, 52.69536147095692
825.0, 61.23951378188667
826.0, 50.261706040458336
827.0, 49.08136482939631
828.0, 47.673274286517625
829.0, 43.82835724441
830.0, 44.03090792015455
831.0, 46.088175331294615
832.0, 42.15994531784007
833.0, 36.618950238582165
834.0, 30.177748518762343
835.0, 39.18865173008087
836.0, 37.68485466598674
837.0, 39.35483870967742
838.0, 32.40554305341706
839.0, 28.76934598102845
840.0, 30.048233607091646
841.0, 41.030534351145064
842.0, 39.3772893772894
843.0, 46.76368676368672
844.0, 40.622054665409976
845.0, 37.51164337990682
846.0, 35.38898206683007
847.0, 42.50281848928976
848.0, 43.79759907060797
849.0, 41.549201235065084
850.0, 45.3147877013177
851.0, 42.620997766195075
852.0, 47.204354280059384
853.0, 47.97659678205751
854.0, 65.00076417545472
855.0, 31.751929122606413
856.0, 30.603250390230443
857.0, 34.6871759419288
858.0, 35.648312611012415
859.0, 35.010902747492366
860.0, 37.39366833289485
861.0, 32.40093240093239
862.0, 38.656330749354005
863.0, 42.987512007684906
864.0, 40.78377762588289
865.0, 41.1886344489546
866.0, 40.0536232963432
867.0, 39.78003890468353
868.0, 34.95231937934376
869.0, 57.073106360517315
870.0, 65.50913115661318
871.0, 64.05191059841385
872.0, 63.52066352066353
873.0, 69.896244337279
874.0, 68.28864115697499
875.0, 73.32498434564815
876.0, 64.01209677419357
877.0, 48.642490981583435
878.0, 57.786797692800675
879.0, 56.76699642180596
880.0, 68.474646716542
881.0, 54.27387701700824
882.0, 51.45833333333339
883.0, 56.374243733794245
884.0, 60.41952558321898
885.0, 50.51607780865422
886.0, 52.987716010826546
887.0, 52.81086729362588
888.0, 44.63875640346231
889.0, 44.1055823078295
890.0, 52.300070771408336
891.0, 52.64470169189674
892.0, 53.51398601398602
893.0, 51.653729328383385
894.0, 51.358234295415926
895.0, 47.52553024351926
896.0, 56.72454003627882
897.0, 44.68823463562074
898.0, 50.66892971246007
899.0, 54.54822954822958
900.0, 50.3285767930905
901.0, 45.67129000090654
902.0, 49.7432859399684
903.0, 51.07180620974718
904.0, 47.66133806986384
905.0, 43.00596563084318
906.0, 46.81346073950975
907.0, 49.29122108928128
908.0, 42.554536832121414
909.0, 41.199877563513944
910.0, 31.988449506697705
911.0, 33.98960197732892
912.0, 19.67500243261655
913.0, 14.639905548996481
914.0, 25.184644103563045
915.0, 33.87685379299636
916.0, 31.737833709172918
917.0, 25.88868707836015
918.0, 32.61810313739633
919.0, 34.03361344537815
920.0, 29.416895926994584
921.0, 25.681130171543884
922.0, 24.636979670861564
923.0, 26.000893940361394
924.0, 25.923096511331806
925.0, 26.376473636481407
926.0, 31.766184789440615
927.0, 41.9989676087237
928.0, 40.06134560245382
929.0, 35.111528188839955
930.0, 40.22132054592402
931.0, 51.56599552572706
932.0, 42.641060503059144
933.0, 42.431929646541526
934.0, 47.779397100559954
935.0, 51.13281891315056
936.0, 57.78829204935521
937.0, 55.88050596573069
938.0, 65.70466975178797
939.0, 62.020490826781035
940.0, 60.066805845511475
941.0, 53.67131231877279
942.0, 41.93492855913239
943.0, 41.3493305512085
944.0, 43.45821808733552
945.0, 42.00979970772803
946.0, 49.59227824929273
947.0, 59.09787783426127
948.0, 57.00593723494486
949.0, 46.479944674965424
950.0, 51.54584574644157
951.0, 56.24267493967597
952.0, 48.32500734645901
953.0, 57.482009051116556
954.0, 57.45044175514144
955.0, 53.13100796484482
956.0, 63.11739703942548
957.0, 58.488387885372816
958.0, 59.00342029374288
959.0, 56.12648221343874
960.0, 59.15956622773044
961.0, 54.80539553182522
962.0, 49.599558133112396
963.0, 63.368055555555564
964.0, 56.779892541662875
965.0, 55.99851659558688
966.0, 59.75464978235061
967.0, 56.82445340691998
968.0, 54.47411444141688
969.0, 68.06713470820537
970.0, 66.24144729212573
971.0, 77.28851401637311
972.0, 66.7950591047948
973.0, 60.87640721462294
974.0, 40.434477925718305
975.0, 46.549722687991746
976.0, 45.64887427270428
977.0, 44.042365401588704
978.0, 47.369837212431065
979.0, 37.53086419753088
980.0, 40.7316552901024
981.0, 35.20160439096473
982.0, 31.575459193334595
983.0, 31.099246830012405
984.0, 27.570361860999427
985.0, 23.913917940466618
986.0, 28.133791809940604
987.0, 33.7378911034406
988.0, 45.08516085940109
989.0, 38.43753611464232
990.0, 40.630344490593686
991.0, 37.851371344030966
992.0, 37.97137664697862
993.0, 44.95696611081226
994.0, 43.78519434143663
995.0, 52.541227358745616
996.0, 57.84226190476193
997.0, 41.3053263315829
998.0, 45.51692589204024
999.0, 47.31642583308758
1000.0, 42.23229959040373
1001.0, 33.82275132275129
1002.0, 22.878832986007694
1003.0, 23.18949909474952
1004.0, 24.79032258064514
1005.0, 24.068274350140896
1006.0, 32.802106430155206
1007.0, 37.096774193548384
1008.0, 34.430234229055884
1009.0, 31.12452830188677
1010.0, 27.110176176702566
1011.0, 30.50295857988165
1012.0, 32.64516129032258
1013.0, 27.30686695278969
1014.0, 27.840831396143855
1015.0, 31.414905107236535
1016.0, 40.76079411356379
1017.0, 41.64539007092197
1018.0, 47.781123183662764
1019.0, 57.13485506231622
1020.0, 50.792393026941376
1021.0, 52.296819787985875
1022.0, 60.671310956301454
1023.0, 61.124327031426084
1024.0, 69.87262058107918
1025.0, 76.39939485627836
1026.0, 71.82341650671783
1027.0, 80.30081192599494
1028.0, 85.63364055299539
1029.0, 84.5139283683911
1030.0, 73.21528633867533
1031.0, 74.96365872749637
1032.0, 72.40420645473226
1033.0, 75.53579082726102
1034.0, 76.10203863806169
1035.0, 74.68912502826134
1036.0, 61.39666784828077
1037.0, 62.379087977890386
1038.0, 69.6401141101602
1039.0, 60.69751056834194
1040.0, 57.7735553816922
1041.0, 57.32037957523723
1042.0, 39.27731451785332
1043.0, 38.600546333263296
1044.0, 39.7576019911265
1045.0, 43.00194532609808
1046.0, 42.34724742891711
1047.0, 35.36792132926416
1048.0, 37.4466688546111
1049.0, 37.27134146341463
1050.0, 40.93028817410021
1051.0, 41.12038140643622
1052.0, 35.61840218949564
1053.0, 36.95740365111563
1054.0, 45.864557313349984
1055.0, 43.24481207371933
1056.0, 61.461730289660466
1057.0, 62.88518155053973
1058.0, 74.8898678414097
1059.0, 66.20132255694341
1060.0, 69.99999999999999
1061.0, 53.13561240661079
1062.0, 54.324801412180044
1063.0, 54.10989010989013
1064.0, 59.583154275891694
1065.0, 55.01076297536475
1066.0, 50.10804321728693
1067.0, 50.53268765133173
1068.0, 41.96675900277008
1069.0, 53.13553607552259
1070.0, 42.32594936708862
1071.0, 43.700224627322854
1072.0, 46.97057126370454
1073.0, 58.02901450725362
1074.0, 61.57838497939244
1075.0, 70.52447552447553
1076.0, 68.03791469194312
1077.0, 64.31899641577061
1078.0, 64.08730158730157
1079.0, 64.15196254951385
1080.0, 68.15196165453577
1081.0, 74.52452452452451
1082.0, 75.0504032258065
1083.0, 62.85615010423907
1084.0, 69.56354547202463
1085.0, 73.45703125000001
1086.0, 68.59365146100487
1087.0, 58.722618105040944
1088.0, 40.528967254408066
1089.0, 43.5250917992656
1090.0, 43.27514138185394
1091.0, 55.32796317606446
1092.0, 56.175208850756384
1093.0, 57.518056467498376
1094.0, 54.55810716771051
1095.0, 50.865312264860826
1096.0, 46.227490312286314
1097.0, 48.50514231045205
1098.0, 45.74780058651028
1099.0, 42.56039738089864
1100.0, 44.106728538283036
1101.0, 47.99911071587373
1102.0, 63.68346679227507
1103.0, 62.2521419828641
1104.0, 72.21120922688772
1105.0, 72.29608336327702
1106.0, 63.83905242989027
1107.0, 65.19698239731767
1108.0, 63.31813741452295
1109.0, 62.147177419354826
1110.0, 68.56558076070272
1111.0, 73.86990077177506
1112.0, 71.31452900478976
1113.0, 69.94953888985557
1114.0, 66.23655913978494
1115.0, 66.59027664102143
1116.0, 62.72031333452019
1117.0, 66.70376848465577
1118.0, 58.002406738868814
1119.0, 48.09226126320328
1120.0, 49.50077656978032
1121.0, 44.58242025809593
1122.0, 43.595238095238095
1123.0, 47.94550648209184
1124.0, 46.14685155717205
1125.0, 49.13156752062529
1126.0, 52.046918123275084
1127.0, 47.74261603375529
1128.0, 52.63849354061747
1129.0, 52.346331791143434
1130.0, 53.636563392660996
1131.0, 49.46107784431136
1132.0, 45.72472594397081
1133.0, 49.381741646935005
1134.0, 50.95005428881651
1135.0, 47.09695603156709
1136.0, 47.12351945854488
1137.0, 35.160349854227434
1138.0, 29.850316637881406
1139.0, 23.758865248226925
1140.0, 30.927498367080332
1141.0, 42.48927038626606
1142.0, 50.89940039973354
1143.0, 49.24242424242423
1144.0, 49.675657220894465
1145.0, 47.56314478833155
1146.0, 55.85937499999993
1147.0, 65.16563146997927
1148.0, 72.48443983402488
1149.0, 70.9390862944163
1150.0, 72.25956566701143
1151.0, 80.65722682340373
1152.0, 86.06110201854892
1153.0, 90.1971230687268
1154.0, 79.07827359180703
1155.0, 71.38581952117866
1156.0, 73.15914489311169
1157.0, 72.13629231114103
1158.0, 71.26908179539761
1159.0, 58.349861166203894
1160.0, 51.97728655445144
1161.0, 49.10810229959168
1162.0, 47.20178372352287
1163.0, 51.30855509126897
1164.0, 56.26503389459874
1165.0, 59.349593495934975
1166.0, 57.87941787941783
1167.0, 56.51427344923808
1168.0, 68.8185140073081
1169.0, 60.514102106390595
1170.0, 51.23883021933387
1171.0, 51.337657073368504
1172.0, 47.577009767092456
1173.0, 51.820785597381374
1174.0, 59.15851272015654
1175.0, 52.33507853403139
1176.0, 50.840246756009364
1177.0, 42.92201382033564
1178.0, 34.703032478019
1179.0, 31.040363843092635
1180.0, 29.073482428115014
1181.0, 26.43814695401315
1182.0, 19.36383928571425
1183.0, 23.262569832402193
1184.0, 33.21671125746036
1185.0, 31.43426294820712
1186.0, 40.94978590891397
1187.0, 43.769502808404376
1188.0, 37.50289017341047
1189.0, 36.40852974186313
1190.0, 41.4031413612566
1191.0, 54.059652029825955
1192.0, 65.49295774647878
1193.0, 59.0237033560197
1194.0, 62.129446640316154
1195.0, 66.65783196395437
1196.0, 67.22251172485663
1197.0, 67.39811912225701
1198.0, 64.65590484282066
1199.0, 55.07840772014474
1200.0, 51.064388961892185
1201.0, 54.11432965906175
1202.0, 55.64915758176408
1203.0, 55.008572128337
1204.0, 55.734939759036145
1205.0, 49.169894853348154
1206.0, 47.045257999423484
1207.0, 51.49160969546297
1208.0, 48.67802585193884
1209.0, 53.00195476123982
1210.0, 48.12688821752262
1211.0, 52.02082057562765
1212.0, 48.95765472312703
1213.0, 54.83400218898214
1214.0, 46.98537281484129
1215.0, 48.16881757935129
1216.0, 47.32364409783771
1217.0, 51.96574542623587
1218.0, 46.901893287435335
1219.0, 45.033407572382934
1220.0, 43.610366398570115
1221.0, 42.285460204535326
1222.0, 39.444214019079276
1223.0, 44.18960244648328
1224.0, 44.206500956023
1225.0, 51.33422281521011
1226.0, 50.0
1227.0, 60.349025974026056
1228.0, 67.5133689839572
1229.0, 64.05325443786978
1230.0, 63.293051359516554
1231.0, 63.774733637747524
1232.0, 47.41000877963136
1233.0, 57.86141399929657
1234.0, 50.850077279752696
1235.0, 46.799431009957395
1236.0, 54.76031957390143
1237.0, 46.872556684910016
1238.0, 46.490887941062475
1239.0, 39.42054433713782
1240.0, 35.43804262036302
1241.0, 29.96899758870117
1242.0, 31.061376737877154
1243.0, 40.11782032400587
1244.0, 38.317209029610076
1245.0, 31.769567331064593
1246.0, 35.40086673889485
1247.0, 25.83955223880598
1248.0, 35.319289005924915
1249.0, 35.435931307793865
1250.0, 64.83119696696158
1251.0, 65.61341571050316
1252.0, 63.495046122309525
1253.0, 59.40077428042421
1254.0, 64.52196807635347
1255.0, 70.06976348477116
1256.0, 70.1459606245757
1257.0, 65.88298636037325
1258.0, 68.7126004445204
1259.0, 78.37363494539775
1260.0, 79.93484093522419
1261.0, 81.10449377368701
1262.0, 81.19274294952395
1263.0, 86.65826431400782
1264.0, 75.59288537549398
1265.0, 79.09732016925233
1266.0, 85.34000588754772
1267.0, 85.99822011272616
1268.0, 84.66536712150744
1269.0, 83.9673913043478
1270.0, 83.66782006920411
1271.0, 77.82426778242694
1272.0, 77.52039151712899
1273.0, 80.55022392834312
1274.0, 73.59253499222407
1275.0, 61.28521684077252
1276.0, 55.63709139426292
1277.0, 54.715696288730065
1278.0, 44.01533826348944
1279.0, 29.51715760704512
1280.0, 32.64654672083563
1281.0, 42.47640199888943
1282.0, 43.26396495071194
1283.0, 38.522092432706856
1284.0, 40.04457652303124
1285.0, 46.0350693535723
1286.0, 42.51463618622805
1287.0, 42.546670381721974
1288.0, 49.51483227058502
1289.0, 62.754182754182736
1290.0, 65.24896265560159
1291.0, 64.28571428571422
1292.0, 82.61111111111101
1293.0, 90.89248434237987
1294.0, 91.33565044687182
1295.0, 90.53944158308477
1296.0, 86.99563794983634
1297.0, 96.26604434072345
1298.0, 96.31017584318246
1299.0, 96.29736765982065
1300.0, 92.66002844950206
1301.0, 83.52562382613368
1302.0, 83.37845154304283
1303.0, 83.53004291845498
1304.0, 71.31782945736441
1305.0, 73.971434662119
1306.0, 68.24689040131429
1307.0, 51.425509110396526
1308.0, 37.32340588010693
1309.0, 31.053756370212042
1310.0, 46.33760063349611
1311.0, 45.76497265572892
1312.0, 47.59633973450188
1313.0, 44.565353345841146
1314.0, 38.863438045375226
1315.0, 42.85247686445289
1316.0, 37.973387922210826
1317.0, 33.08895940474885
1318.0, 31.031298101590522
1319.0, 26.32591958939264
1320.0, 26.34563937934722
1321.0, 28.17900881309373
1322.0, 34.47975077881618
1323.0, 47.91516894320633
1324.0, 34.93019838354148
1325.0, 31.34427980242961
1326.0, 33.732766396082965
1327.0, 35.14093959731542
1328.0, 35.69188820722559
1329.0, 30.523453433038725
1330.0, 34.21213044803412
1331.0, 32.79766252739226
1332.0, 47.94036274208421
1333.0, 52.74596182085166
1334.0, 52.753708327213985
1335.0, 61.42024377318496
1336.0, 62.08826975654214
1337.0, 53.64780828151071
1338.0, 54.510703363914416
1339.0, 57.500000000000014
1340.0, 44.13036762434353
1341.0, 42.10138520483344
1342.0, 49.37780850328382
1343.0, 55.625546806649204
1344.0, 59.010255575451765
1345.0, 53.91938122861814
1346.0, 44.40677966101695
1347.0, 38.59054717940031
1348.0, 43.017578124999936
1349.0, 27.979002624671864
1350.0, 34.87341772151892
1351.0, 40.27965719440677
1352.0, 41.519434628975226
1353.0, 43.09290953545228
1354.0, 61.07325383304941
1355.0, 63.83736459415351
1356.0, 65.51934206518432
1357.0, 56.9710850271973
1358.0, 53.230908269317695
1359.0, 64.73718155433738
1360.0, 68.36369828026562
1361.0, 77.0305437611286
1362.0, 77.70836102618637
1363.0, 86.020797683296
1364.0, 82.08040651621576
1365.0, 79.8503899411109
1366.0, 76.4668769716088
1367.0, 78.27470953366226
1368.0, 73.81546134663341
1369.0, 73.58959648116267
1370.0, 74.48159910330651
1371.0, 86.60369257191913
1372.0, 88.74839262751811
1373.0, 87.45519713261638
1374.0, 77.98849350095887
1375.0, 48.190789473684255
1376.0, 41.49641814804979
1377.0, 27.36085053158213
1378.0, 29.002923026956722
1379.0, 42.7452039989192
1380.0, 44.4881889763779
1381.0, 37.15900712705819
1382.0, 32.78128286014713
1383.0, 30.593719332679015
1384.0, 24.37843784378427
1385.0, 24.808575803981554
1386.0, 22.457905095123493
1387.0, 35.772504980981694
1388.0, 33.42924847664182
1389.0, 48.1112572824657
1390.0, 55.60379482231873
1391.0, 59.357219744733186
1392.0, 62.526584432156504
1393.0, 56.32758098698152
1394.0, 58.6735445836404
1395.0, 64.75721993018091
1396.0, 64.06730302540042
1397.0, 70.90202177293939
1398.0, 79.19275123558485
1399.0, 81.08148591971242
1400.0, 81.6563584251019
1401.0, 74.18175776707099
1402.0, 87.47072599531622
1403.0, 76.80331099724091
1404.0, 67.56000932183642
1405.0, 59.951980792316974
1406.0, 60.398860398860485
1407.0, 60.948730234786815
1408.0, 64.96883730926288
1409.0, 65.0963597430407
1410.0, 65.62631800927886
1411.0, 55.956357158761925
1412.0, 54.44495624136346
1413.0, 57.009345794392544
1414.0, 57.433763958835044
1415.0, 58.930577398337455
1416.0, 60.97352690008543
1417.0, 70.7201086956521
1418.0, 73.5689045936396
1419.0, 80.3621169916434
1420.0, 75.63761955366628
1421.0, 75.5974508762612
1422.0, 70.23963730569943
1423.0, 60.83605099318113
1424.0, 68.37443141010287
1425.0, 47.90338812479034
1426.0, 47.40941415509654
1427.0, 39.67760730238879
1428.0, 39.145430159034326
1429.0, 41.190523591479135
1430.0, 38.78988810609199
1431.0, 32.96364756623541
1432.0, 32.81537517890001
1433.0, 29.24203273040483
1434.0, 31.653911564625844
1435.0, 45.64667630057805
1436.0, 46.78103997170148
1437.0, 49.68069120961684
1438.0, 39.00201387334982
1439.0, 79.02370003537315
1440.0, 73.49882589734975
1441.0, 60.10765550239235
1442.0, 62.13235294117646
1443.0, 51.37285091095713
1444.0, 51.385325808106685
1445.0, 57.09258256632375
1446.0, 59.243359270190474
1447.0, 62.27961261484977
1448.0, 53.94916023604181
1449.0, 52.615600186828544
1450.0, 49.24026590693257
1451.0, 45.57240166996266
1452.0, 44.12765957446808
1453.0, 50.0
1454.0, 57.04686118479221
1455.0, 67.18885987815489
1456.0, 60.48488664987403
1457.0, 65.05248899424325
1458.0, 59.46624803767667
1459.0, 59.0678503487635
1460.0, 60.19118100524212
1461.0, 56.200992158745414
1462.0, 60.01367053998634
1463.0, 51.67064439140811
1464.0, 58.4719985686169
1465.0, 59.98531571218799
1466.0, 63.709529906712994
1467.0, 55.891507336593996
1468.0, 54.599542334096135
1469.0, 45.89992140424422
1470.0, 57.2573463935887
1471.0, 62.23453370267771
1472.0, 70.08665511265174
1473.0, 66.19812583668019
1474.0, 57.719714964370546
1475.0, 66.7580743449117
1476.0, 63.710380924687406
1477.0, 66.17990654205617
1478.0, 50.86042065009564
1479.0, 54.1016949152542
1480.0, 51.46953405017922
1481.0, 55.635648754914826
1482.0, 53.69357045143641
1483.0, 54.89510489510492
1484.0, 56.13736824209449
1485.0, 61.834319526627276
1486.0, 58.3962000558815
1487.0, 54.755043227665695
1488.0, 55.17423442449845
1489.0, 56.03314344899017
1490.0, 58.88435374149668
1491.0, 60.854922279792774
1492.0, 65.1053215077605
1493.0, 54.43800695249136
1494.0, 56.1454383225519
1495.0, 58.285593040526216
1496.0, 53.98786789485514
1497.0, 52.10320901994792
1498.0, 51.25772285966466
1499.0, 53.494736842105276
1500.0, 60.81908380831752
1501.0, 61.95698924731179
1502.0, 65.83552055993002
1503.0, 59.0250965250965
1504.0, 57.21637426900582
1505.0, 53.98863917016548
1506.0, 55.665902724726266
1507.0, 72.0246841022626
1508.0, 54.74201474201468
1509.0, 40.33001698616846
1510.0, 38.20689655172414
1511.0, 46.584379655245826
1512.0, 45.87017468190638
1513.0, 30.457863304578638
1514.0, 24.64939386736397
1515.0, 42.21327967806842
1516.0, 36.148338534973384
1517.0, 36.04246750869487
1518.0, 53.11606632361349
1519.0, 50.53719570243438
1520.0, 43.88803590409829
1521.0, 42.75213881190507
1522.0, 49.4765768123528
1523.0, 49.308815858111615
1524.0, 49.23818205495509
1525.0, 46.0782957532162
1526.0, 49.00575614861329
1527.0, 58.646902318510094
1528.0, 58.32178404938898
1529.0, 52.327424700965565
1530.0, 58.212186823383846
1531.0, 58.30235439900865
1532.0, 42.267393126571655
1533.0, 45.28513695554555
1534.0, 67.54017305315206
1535.0, 70.2132486388385
1536.0, 72.34625105307502
1537.0, 84.87243170015813
1538.0, 92.23560910307899
1539.0, 91.72507347953892
1540.0, 79.6116504854369
1541.0, 65.01845018450184
1542.0, 61.89695550351289
1543.0, 53.73880441574674
1544.0, 54.478376716540254
1545.0, 56.52446675031371
1546.0, 61.33486766398161
1547.0, 56.075749605470776
1548.0, 54.44626295690129
1549.0, 56.65340024225649
1550.0, 54.77523018595417
1551.0, 51.34520651762034
1552.0, 53.71304974765686
1553.0, 55.96615437748224
1554.0, 63.12511448983327
1555.0, 70.2508960573476
1556.0, 76.03695694908583
1557.0, 78.98713498060025
1558.0, 71.34217713616849
1559.0, 64.9173256649892
1560.0, 60.536026412895616
1561.0, 73.14087337840303
1562.0, 71.16516280894464
1563.0, 56.99625024669424
1564.0, 60.41780199818343
1565.0, 59.541711421410675
1566.0, 58.82674439788662
1567.0, 49.033537089046774
1568.0, 55.61151079136691
1569.0, 53.417113809658304
1570.0, 48.05974316024568
1571.0, 45.183727034120764
1572.0, 47.41771105908277
1573.0, 54.358833994799504
1574.0, 54.410958904109634
1575.0, 49.85686304053037
1576.0, 55.9205298013245
1577.0, 52.86751815677435
1578.0, 46.94599374234799
1579.0, 43.463476070528934
1580.0, 36.60781841109712
1581.0, 43.1547619047619
1582.0, 31.960814327261602
1583.0, 37.39271973956792
1584.0, 36.344024162232124
1585.0, 49.29617517417885
1586.0, 50.82545505855791
1587.0, 41.17095391211142
1588.0, 42.12572041281326
1589.0, 39.4274912233324
1590.0, 31.090629800307156
1591.0, 43.82041365394316
1592.0, 43.433333333333294
1593.0, 47.2958257713249
1594.0, 50.52345870492441
1595.0, 51.436726926736405
1596.0, 58.25348038329422
1597.0, 57.79564978980081
1598.0, 66.95312500000003
1599.0, 66.07178664527777
1600.0, 64.16243654822341
1601.0, 82.57252992493413
1602.0, 82.86113328012777
1603.0, 83.71296109655312
1604.0, 73.07270734380714
1605.0, 68.84189325276942
1606.0, 69.74086921036528
1607.0, 64.35699491621162
1608.0, 67.46712407089764
1609.0, 54.57375064845239
1610.0, 62.33691756272399
1611.0, 56.55457395269308
1612.0, 55.37177985948479
1613.0, 48.52437632480028
1614.0, 46.95487535500156
1615.0, 37.01182371909714
1616.0, 29.890624999999943
1617.0, 29.476117103235723
1618.0, 33.168147641831865
1619.0, 33.32188841201719
1620.0, 29.087367001348724
1621.0, 30.7606973058637
1622.0, 22.371172057557516
1623.0, 27.93370756482227
1624.0, 4.738092261532742
1625.0, 24.872142782590544
1626.0, 20.25149489975381
1627.0, 31.127507493659223
1628.0, 33.91430093614433
1629.0, 37.00421005982718
1630.0, 38.64846100439715
1631.0, 38.7051915945612
1632.0, 34.59962497395652
1633.0, 36.844588219436574
1634.0, 39.543589374415106
1635.0, 44.57205359584358
1636.0, 52.8705756440639
1637.0, 48.75275128393249
1638.0, 61.7204474128913
1639.0, 59.92755454468876
1640.0, 71.65864676421486
1641.0, 66.37931034482756
1642.0, 56.75067024128687
1643.0, 48.02838317283324
1644.0, 48.09663993503198
1645.0, 53.166603271205794
1646.0, 63.14380554663239
1647.0, 56.699842849659525
1648.0, 55.51432694289838
1649.0, 53.254630131051705
1650.0, 54.53970929007796
1651.0, 61.37443376422498
1652.0, 53.909318100678306
1653.0, 40.59001712103251
1654.0, 37.34381038258402
1655.0, 30.851183133340797
1656.0, 32.13034337771548
1657.0, 39.37797198303561
1658.0, 46.9537558111084
1659.0, 44.91170118155252
1660.0, 34.57173447537474
1661.0, 42.26057313305634
1662.0, 36.65342326526839
1663.0, 28.512880562060886
1664.0, 34.12716763005781
1665.0, 36.6888888888889
1666.0, 41.07039815349106
1667.0, 41.555977229601524
1668.0, 47.24328049620952
1669.0, 53.30049985298442
1670.0, 59.52103654098122
1671.0, 56.792084928143275
1672.0, 55.45380090834635
1673.0, 49.60805465659834
1674.0, 60.048869883934024
1675.0, 53.522607781282865
1676.0, 62.20531061295394
1677.0, 73.55751561925766
1678.0, 71.75662414131503
1679.0, 61.65833012697193
1680.0, 60.902403138793545
1681.0, 64.93156159456491
1682.0, 59.476323119777184
1683.0, 51.34545454545451
1684.0, 39.02439024390241
1685.0, 45.84566987416727
1686.0, 50.83578328433434
1687.0, 55.173671255356034
1688.0, 50.70282125411224
1689.0, 55.481618850223605
1690.0, 47.48026715239831
1691.0, 46.39537285684776
1692.0, 46.48381109507117
1693.0, 50.23400936037443
1694.0, 49.296094459582186
1695.0, 46.5372688641323
1696.0, 44.10100130605136
1697.0, 51.49430740037952
1698.0, 58.962520369364476
1699.0, 55.361890694239285
1700.0, 37.35744542196148
1701.0, 35.69427148194268
1702.0, 47.99746514575415
1703.0, 51.16873630387145
1704.0, 67.98676227247657
1705.0, 65.53300624442464
1706.0, 62.78145695364239
1707.0, 66.95153216945431
1708.0, 61.56626506024097
1709.0, 62.614875627986805
1710.0, 61.744804253262465
1711.0, 63.90788873689011
1712.0, 62.55300156215132
1713.0, 59.30560252508177
1714.0, 60.8137787539013
1715.0, 66.94794520547944
1716.0, 65.5747060837804
1717.0, 56.679429908530096
1718.0, 56.7254568635784
1719.0, 58.0108108108108
1720.0, 56.26258107805858
1721.0, 56.66481994459832
1722.0, 59.49970913321701
1723.0, 56.09916630100923
1724.0, 63.30162283156126
1725.0, 57.71509836454142
1726.0, 63.52715654952081
1727.0, 66.09285341679708
1728.0, 67.92655140061663
1729.0, 62.92872054876235
1730.0, 54.89429738852376
1731.0, 68.58838490885984
1732.0, 43.86694386694384
1733.0, 39.20886075949367
1734.0, 39.71992361553152
1735.0, 36.27187079407801
1736.0, 44.04255319148926
1737.0, 57.29657027572295
1738.0, 36.58690176322415
1739.0, 40.82332761578033
1740.0, 37.003058103975455
1741.0, 40.89894803952821
1742.0, 52.906976744186046
1743.0, 56.27802690582966
1744.0, 58.096454806770986
1745.0, 59.630769230769225
1746.0, 71.55318633389882
1747.0, 65.66599955525908
1748.0, 69.86140933047042
1749.0, 68.74493927125506
1750.0, 65.43370105991781
1751.0, 60.282916213275314
1752.0, 75.25183150183152
1753.0, 65.27137993190469
1754.0, 60.04053058216653
1755.0, 56.890933486678186
1756.0, 54.409081694709066
1757.0, 56.099941440562176
1758.0, 56.108508977361424
1759.0, 50.68945426296366
1760.0, 38.167025604211446
1761.0, 53.92581888246629
1762.0, 46.594081518704634
1763.0, 46.594081518704634
1764.0, 42.093316519546065
1765.0, 45.10480233483682
1766.0, 39.02151488358387
1767.0, 52.43533758817607
1768.0, 66.57512750098081
1769.0, 47.80281690140846
1770.0, 47.162817222697484
1771.0, 55.606133205558194
1772.0, 57.50000000000006
1773.0, 62.10909090909096
1774.0, 68.47352024922125
1775.0, 64.00284562485182
1776.0, 66.56387665198241
1777.0, 64.64171122994657
1778.0, 69.10587697233026
1779.0, 66.23117803365818
1780.0, 63.573499888467566
1781.0, 58.053765829815646
1782.0, 59.22246220302385
1783.0, 80.40786598689007
1784.0, 78.07893485496923
1785.0, 72.59215219976235
1786.0, 69.79630808402302
1787.0, 66.56288916562899
1788.0, 59.98509687034286
1789.0, 62.6824183460737
1790.0, 48.54302365443947
1791.0, 43.22344322344315
1792.0, 43.79832972471381
1793.0, 37.34177215189866
1794.0, 45.884037222619895
1795.0, 55.06696428571431
1796.0, 47.92165397170835
1797.0, 42.969494756911374
1798.0, 46.9121416919133
1799.0, 45.00598802395208
1800.0, 46.014751368070414
1801.0, 51.228389444949926
1802.0, 42.93512492126808
1803.0, 39.83668064444936
1804.0, 54.07510986815823
1805.0, 54.28113094044515
1806.0, 57.596899224806194
1807.0, 63.46359171471272
1808.0, 60.411846367422456
1809.0, 52.93213828425095
1810.0, 61.62147933666751
1811.0, 46.77732269885751
1812.0, 43.105344182977746
1813.0, 45.45647558386414
1814.0, 44.21364985163204
1815.0, 38.96848137535819
1816.0, 42.829457364341096
1817.0, 34.76892822025566
1818.0, 18.339686573485835
1819.0, 18.563772775991424
1820.0, 11.049825335539623
1821.0, 10.759040458288567
1822.0, 19.90681233933168
1823.0, 20.68571428571431
1824.0, 22.507576966023365
1825.0, 26.94644891758452
1826.0, 25.544554455445578
1827.0, 24.332235638492463
1828.0, 21.55591572123174
1829.0, 30.49068873780665
1830.0, 29.564345084551405
1831.0, 34.09353825813915
1832.0, 39.25678055653392
1833.0, 52.15469613259672
1834.0, 64.57407078072202
1835.0, 71.82624113475185
1836.0, 60.16574585635363
1837.0, 63.640948058497266
1838.0, 57.113786671188755
1839.0, 59.632881085395084
1840.0, 62.69508306762882
1841.0, 64.06401551891372
1842.0, 70.86909871244634
1843.0, 64.1764355255315
1844.0, 56.99664725604376
1845.0, 61.09940003243067
1846.0, 52.04450223956077
1847.0, 42.36378876781223
1848.0, 40.457222029788745
1849.0, 34.6098265895954
1850.0, 43.94552815605448
1851.0, 45.146767513056
1852.0, 54.36744423633576
1853.0, 50.99565532223026
1854.0, 44.20210262042997
1855.0, 32.692056013610795
1856.0, 32.4626380766732
1857.0, 32.265564453629565
1858.0, 36.24492164828792
1859.0, 37.87643150007066
1860.0, 42.30222643297014
1861.0, 44.55771643663742
1862.0, 47.14413875598082
1863.0, 51.20069858826953
1864.0, 43.85257702274689
1865.0, 36.16471660841816
1866.0, 24.795081967213093
1867.0, 30.45312287386035
1868.0, 38.97932248130223
1869.0, 57.10000000000005
1870.0, 57.78377466689158
1871.0, 55.82532181847812
1872.0, 51.10381861575176
1873.0, 41.22753579043562
1874.0, 52.46770025839797
1875.0, 50.95399895452165
1876.0, 49.759036144578346
1877.0, 46.400885935769686
1878.0, 49.593135079153726
1879.0, 52.31076308920622
1880.0, 61.66489925768821
1881.0, 57.47462919594063
1882.0, 56.95377321216908
1883.0, 52.31947483588616
1884.0, 53.706199460916416
1885.0, 58.73249815770077
1886.0, 67.84903518728717
1887.0, 83.62503708098471
1888.0, 63.4473798181029
1889.0, 69.32270916334664
1890.0, 58.3069620253163
1891.0, 67.07746478873227
1892.0, 67.74537695590311
1893.0, 58.37803723572098
1894.0, 59.440344403443945
1895.0, 63.26129666011784
1896.0, 53.19865319865322
1897.0, 51.81975736568464
1898.0, 59.812623274161716
1899.0, 55.68051411521685
1900.0, 58.833215713949606
1901.0, 55.19713261648742
1902.0, 66.87116564417173
1903.0, 66.99864191942046
1904.0, 70.66125566961091
1905.0, 62.72321428571425
1906.0, 65.99389814597512
1907.0, 74.6826171875
1908.0, 73.4517766497462
1909.0, 70.74511960406929
1910.0, 66.28026790314263
1911.0, 61.92565823438305
1912.0, 51.75746924428818
1913.0, 58.74125874125878
1914.0, 58.1020012911556
1915.0, 58.62288810965895
1916.0, 47.97595190380764
1917.0, 47.23577235772367
1918.0, 52.97010972379877
1919.0, 55.62177195073501
1920.0, 38.490696071674755
1921.0, 28.037383177570163
1922.0, 29.775813072308253
1923.0, 29.58895513021662
1924.0, 41.113105924596105
1925.0, 54.29457364341086
1926.0, 66.32177961717538
1927.0, 61.73545499751373
1928.0, 56.31735840403571
1929.0, 57.277416461089935
1930.0, 47.12441314553995
1931.0, 42.023042374536224
1932.0, 38.325991189427285
1933.0, 43.26625386996906
1934.0, 46.227000206739696
1935.0, 64.5946390396316
1936.0, 41.26525369299937
1937.0, 43.67958656330747
1938.0, 45.087171218381535
1939.0, 36.98957636033279
1940.0, 29.83107118445467
1941.0, 29.84855886663412
1942.0, 30.586704044853846
1943.0, 27.12659075686537
1944.0, 26.567332021366326
1945.0, 26.679841897233203
1946.0, 29.353325361052356
1947.0, 31.67867627435281
1948.0, 32.82407830939532
1949.0, 20.4817975586043
1950.0, 38.406240440501634
1951.0, 36.34208030350939
1952.0, 29.260959012502
1953.0, 38.61751152073735
1954.0, 45.40551338393927
1955.0, 46.68309714520436
1956.0, 42.00702273147298
1957.0, 49.36056105610563
1958.0, 63.966900702106265
1959.0, 70.76923076923077
1960.0, 68.20083682008364
1961.0, 62.0711166562695
1962.0, 61.01958346285351
1963.0, 58.474828716115496
1964.0, 43.752028562155196
1965.0, 37.37818296133287
1966.0, 50.981012658227925
1967.0, 49.756730457346734
1968.0, 54.04924354790868
1969.0, 57.079646017699055
1970.0, 61.91999999999993
1971.0, 63.009014609884986
1972.0, 53.84615384615387
1973.0, 51.27737226277366
1974.0, 45.45702592087316
1975.0, 49.27683329104285
1976.0, 59.641901625848995
1977.0, 63.03055156858727
1978.0, 71.58936541820302
1979.0, 69.88065921576062
1980.0, 77.8335424508574
1981.0, 72.18666666666672
1982.0, 67.66958424507658
1983.0, 67.8279804028307
1984.0, 72.38669847060477
1985.0, 72.70079067831878
1986.0, 77.16801173881146
1987.0, 77.89144643364595
1988.0, 83.22235089751015
1989.0, 78.87509130752377
1990.0, 73.07565789473682
1991.0, 73.46839546191248
1992.0, 69.71530249110322
1993.0, 66.19361378611246
1994.0, 54.69775865972378
1995.0, 60.7645875251508
1996.0, 60.33966033966036
1997.0, 64.72678809418036
1998.0, 63.02346985734007
1999.0, 63.19285387081999
2000.0, 65.65505449882457
2001.0, 61.64447558981544
2002.0, 54.56636760984585
2003.0, 57.391725139124084
2004.0, 62.6279457272078
2005.0, 63.982564808442305
2006.0, 63.57419648962837
2007.0, 75.57455905932655
2008.0, 74.02671213412901
2009.0, 53.922583316083674
2010.0, 57.0896340127109
2011.0, 56.118332586284154
2012.0, 49.01154824818948
2013.0, 49.18064767850179
2014.0, 54.00776836158192
2015.0, 58.06135770234986
2016.0, 57.110754414125225
2017.0, 57.193377270535315
2018.0, 57.95041844307595
2019.0, 58.67473618870269
2020.0, 60.406716992759264
2021.0, 63.87405116671357
2022.0, 61.16651556361442
2023.0, 77.12927756653997
2024.0, 77.27619047619059
2025.0, 75.35633133650084
2026.0, 87.97078292627265
2027.0, 84.24198947871844
2028.0, 81.4051918735893
2029.0, 82.7622286162701
2030.0, 84.41835645677702
2031.0, 85.4673149648839
2032.0, 78.58750703432761
2033.0, 78.97790055248625
2034.0, 79.19059338255406
2035.0, 78.03117782909938
2036.0, 70.06985491671148
2037.0, 71.83312262958282
2038.0, 63.54283158130174
2039.0, 62.61467889908255
2040.0, 53.816631130064025
2041.0, 57.9404466501241
2042.0, 56.25806451612907
2043.0, 55.993076590220724
2044.0, 62.58381761287441
2045.0, 56.10098176718097
2046.0, 45.43979227523526
2047.0, 43.910577243910524
2048.0, 37.1744397334948
2049.0, 30.366972477064138
2050.0, 36.90297386602581
2051.0, 37.910138929943855
2052.0, 46.77630621452483
2053.0, 50.52090380192129
2054.0, 52.13627478357999
2055.0, 45.43781225348408
2056.0, 44.88748519542045
2057.0, 44.507751424407054
2058.0, 39.724816965412785
2059.0, 43.52690463505595
2060.0, 56.059904276671325
2061.0, 53.48152991173587
2062.0, 61.83503243744206
2063.0, 68.70979947029889
2064.0, 59.87876491759802
2065.0, 60.92971776425009
2066.0, 50.61022120518688
2067.0, 48.13776531838206
2068.0, 54.630365659777446
2069.0, 62.448886869604806
2070.0, 66.54929577464792
2071.0, 60.74879227053144
2072.0, 69.51354339414046
2073.0, 62.19797349961034
2074.0, 59.1292134831461
2075.0, 51.758409785932706
2076.0, 53.72769494011245
2077.0, 47.8129713423831
2078.0, 63.471561296170435
2079.0, 52.46534878436726
2080.0, 59.98023715415021
2081.0, 53.27336331834084
2082.0, 40.61363636363636
2083.0, 47.14884696016765
2084.0, 49.326633165829136
2085.0, 51.1668611435239
2086.0, 48.794510385756716
2087.0, 45.487551867219935
2088.0, 54.05129699795976
2089.0, 55.72415865384616
2090.0, 54.786744400122764
2091.0, 57.60085902745821
2092.0, 45.30456852791878
2093.0, 40.71275837491087
2094.0, 38.2049134561697
2095.0, 38.554726017748955
2096.0, 43.32028191072824
2097.0, 39.833748960931
2098.0, 37.2246313963573
2099.0, 35.4326494201605
2100.0, 42.738301559792006
2101.0, 47.7536793183578
2102.0, 33.98580866161002
2103.0, 45.718688091569504
2104.0, 47.63219367169251
2105.0, 54.001119194180205
2106.0, 63.963599595551045
2107.0, 87.92892156862743
2108.0, 93.45491388044579
2109.0, 97.1552257266542
2110.0, 91.35946947532662
2111.0, 90.35812672176306
2112.0, 90.35243158101984
2113.0, 86.39455782312928
2114.0, 85.20953163516846
2115.0, 86.50677789363935
2116.0, 73.66612407306928
2117.0, 65.39799072642975
2118.0, 59.126158501986
2119.0, 58.418318260534946
2120.0, 55.11748307447229
2121.0, 41.90721649484535
2122.0, 54.82965931863727
2123.0, 58.41328413284133
2124.0, 56.64698514940065
2125.0, 52.67010480785226
2126.0, 49.404232616041256
2127.0, 57.65867875647667
2128.0, 55.41501976284587
2129.0, 56.648308418568035
2130.0, 65.64872021182704
2131.0, 69.29383268119989
2132.0, 61.66473221687949
2133.0, 56.93797727696031
2134.0, 57.41923365890316
2135.0, 58.16571323122355
2136.0, 39.324569356300955
2137.0, 40.82670203359858
2138.0, 48.56409059070747
2139.0, 56.94065060839334
2140.0, 43.316121629374635
2141.0, 34.177215189873394
2142.0, 40.933418968101
2143.0, 38.38191803971267
2144.0, 32.3983972524327
2145.0, 35.52776756160351
2146.0, 42.69613259668505
2147.0, 41.84794797039698
2148.0, 49.17116037547428
2149.0, 51.32912602792116
2150.0, 55.861070911722145
2151.0, 45.46257451976152
2152.0, 41.2468940591822
2153.0, 52.152317880794726
2154.0, 57.134220072551365
2155.0, 61.806428443167505
2156.0, 57.89473684210529
2157.0, 60.62274539586103
2158.0, 69.75772765246447
2159.0, 68.26649134341437
2160.0, 68.01310043668124
2161.0, 69.79381443298973
2162.0, 54.55790297339594
2163.0, 57.469791285243524
2164.0, 62.04248366013074
2165.0, 58.058103975535175
2166.0, 54.86994219653178
2167.0, 48.53328938694795
2168.0, 56.4489420423183
2169.0, 48.85185937817518
2170.0, 46.89816621147089
2171.0, 55.267050123253874
2172.0, 57.6210493538845
2173.0, 60.28596440035015
2174.0, 56.21003945041492
2175.0, 56.768734891216724
2176.0, 68.98318444561217
2177.0, 67.9037520391517
2178.0, 66.34834663625995
2179.0, 76.73475300593944
2180.0, 73.35549092923421
2181.0, 72.70147559591372
2182.0, 74.66754443712969
2183.0, 75.14244070491588
2184.0, 76.75961017866813
2185.0, 68.2534959833383
2186.0, 69.64006259780906
2187.0, 62.977099236641216
2188.0, 71.03649635036494
2189.0, 66.43449911084767
2190.0, 63.90438247011951
2191.0, 53.22389825495415
2192.0, 56.14862054623597
2193.0, 54.88518043075165
2194.0, 59.35523677309891
2195.0, 61.993365065628204
2196.0, 56.47571606475719
2197.0, 57.51458760447876
2198.0, 57.55089158908004
2199.0, 58.00858915221893
2200.0, 47.89464854890121
2201.0, 53.782401692823164
2202.0, 51.036801793386864
2203.0, 54.216396008608875
2204.0, 50.0
2205.0, 66.65895953757233
2206.0, 58.76086347070369
2207.0, 53.669291338582745
2208.0, 47.53138075313808
2209.0, 31.92389006342495
2210.0, 38.47736625514408
2211.0, 47.052871237035205
2212.0, 47.68008203024869
2213.0, 48.66562009419148
2214.0, 42.68992425981181
2215.0, 42.43891194098667
2216.0, 44.81767955801105
2217.0, 51.173249902229145
2218.0, 50.94302554027508
2219.0, 51.2018760992769
2220.0, 48.80774962742176
2221.0, 53.11380310527209
2222.0, 63.67689015691865
2223.0, 71.02055033089516
2224.0, 71.62346521145975
2225.0, 67.7238805970149
2226.0, 72.84504235176877
2227.0, 77.53127606338616
2228.0, 82.57239296500265
2229.0, 78.27761246280404
2230.0, 72.76514494011457
2231.0, 71.06233862043527
2232.0, 76.35980111496157
2233.0, 69.221298861188
2234.0, 73.52624288132981
2235.0, 62.14788732394368
2236.0, 65.1539708265802
2237.0, 60.57247088536547
2238.0, 58.388864208499875
2239.0, 53.283783783783754
2240.0, 47.51043530113296
2241.0, 44.21768707482994
2242.0, 44.15094339622638
2243.0, 36.254338125929635
2244.0, 34.33098591549296
2245.0, 34.060106069534456
2246.0, 21.152042866711326
2247.0, 30.349846782431072
2248.0, 26.42317380352644
2249.0, 22.525230835301684
2250.0, 19.229908215804755
2251.0, 21.186823104693147
2252.0, 22.823685373398163
2253.0, 32.30819035286501
2254.0, 32.27684346701166
2255.0, 35.65940427323439
2256.0, 38.96640250027906
2257.0, 51.1419672982092
2258.0, 58.872967759713404
2259.0, 58.54166666666669
2260.0, 57.42506811989097
2261.0, 54.379562043795566
2262.0, 55.91413989792852
2263.0, 79.57701345866263
2264.0, 77.40486882533678
2265.0, 78.22819403324979
2266.0, 79.8269677147077
2267.0, 78.41499209753889
2268.0, 67.54181252430965
2269.0, 67.54812366323159
2270.0, 67.94699443057425
2271.0, 62.71324126726236
2272.0, 59.75715524718134
2273.0, 55.9562841530055
2274.0, 55.48331166016473
2275.0, 52.081406105457916
2276.0, 45.375780777755416
2277.0, 51.32673267326733
2278.0, 53.2254995242626
2279.0, 54.61595273264403
2280.0, 44.39963336388629
2281.0, 35.89335455630717
2282.0, 43.71534195933451
2283.0, 33.55749831876261
2284.0, 30.765671987046034
2285.0, 28.243788490125283
2286.0, 30.035409289731305
2287.0, 38.31919814957591
2288.0, 57.5823492852704
2289.0, 62.905211325400096
2290.0, 71.4242146996035
2291.0, 65.32330827067672
2292.0, 57.4377745241581
2293.0, 49.6466176258474
2294.0, 56.87666370896185
2295.0, 60.711713009652804
2296.0, 56.12078346028291
2297.0, 53.21124580861489
2298.0, 55.92701445015917
2299.0, 63.751041294775675
2300.0, 64.73312492763691
2301.0, 63.08773630634996
2302.0, 56.553986592497495
2303.0, 54.02958044068824
2304.0, 50.41834968263127
2305.0, 54.7916353242064
2306.0, 58.26267797152454
2307.0, 64.51104100946364
2308.0, 63.23529411764703
2309.0, 62.67281105990778
2310.0, 66.10927474236823
2311.0, 72.40204429301531
2312.0, 69.94434137291273
2313.0, 57.489669421487555
2314.0, 54.655647382920094
2315.0, 55.22306855277474
2316.0, 47.017862549197666
2317.0, 52.09416917601968
2318.0, 50.84157093240719
2319.0, 46.283605693199746
2320.0, 40.44219253800093
2321.0, 41.926790927464616
2322.0, 45.10719592443211
2323.0, 35.377811959238585
2324.0, 39.34015049199308
2325.0, 42.51459549624684
2326.0, 42.622268470343464
2327.0, 45.59216384683891
2328.0, 44.42928603910867
2329.0, 46.60257810793097
2330.0, 50.0
2331.0, 37.9416282642089
2332.0, 40.17348875033883
2333.0, 41.87623622492225
2334.0, 58.28534868841971
2335.0, 62.98609139937551
2336.0, 58.90324613930039
2337.0, 74.99999999999993
2338.0, 59.770937723693606
2339.0, 52.68138801261833
2340.0, 55.85638610947611
2341.0, 46.41721692345309
2342.0, 53.68843796237579
2343.0, 46.91788281420176
2344.0, 50.866935483871025
2345.0, 51.259650548557445
2346.0, 51.63733115022517
2347.0, 48.46331156358051
2348.0, 48.73901413832635
2349.0, 42.091997479521126
2350.0, 48.02036199095022
2351.0, 48.88675623800385
2352.0, 58.27865688923192
2353.0, 55.5657773689052
2354.0, 54.91879783460892
2355.0, 57.15951039440451
2356.0, 49.07843977711103
2357.0, 52.62455516014231
2358.0, 45.020120724346086
2359.0, 46.673311736855275
2360.0, 51.79021684316686
2361.0, 60.010360010359946
2362.0, 49.504699009398
2363.0, 38.170779475127304
2364.0, 41.66666666666664
2365.0, 37.40875912408757
2366.0, 24.99999999999997
2367.0, 27.58086983439094
2368.0, 26.407675369613045
2369.0, 27.466055946343843
2370.0, 26.919993586660226
2371.0, 24.945533769063147
2372.0, 23.360536286796787
2373.0, 19.650937297996094
2374.0, 18.0295436560274
2375.0, 17.75836972343521
2376.0, 17.883795309168434
2377.0, 27.459076832325565
2378.0, 16.28658951667792
2379.0, 28.271378563093847
2380.0, 36.74972914409534
2381.0, 39.61587167581254
2382.0, 46.48335203890761
2383.0, 49.25490196078431
2384.0, 53.732849071832106
2385.0, 59.86542647931922
2386.0, 69.18756268806426
2387.0, 78.6007292616226
2388.0, 79.28067078552517
2389.0, 73.09368191721137
2390.0, 80.34924330616994
2391.0, 78.9158131401449
2392.0, 78.80994225458197
2393.0, 74.14215686274508
2394.0, 79.50563204005002
2395.0, 80.64992614475628
2396.0, 66.6334991708126
2397.0, 71.49334088977044
2398.0, 73.63040629095678
2399.0, 62.43939780556265
2400.0, 47.244278374591346
2401.0, 47.644842204427746
2402.0, 48.42227378190251
2403.0, 41.3594926674593
2404.0, 40.926332601317654
2405.0, 36.86020635241758
2406.0, 30.003363605785438
2407.0, 30.96699286780563
2408.0, 27.609108159392875
2409.0, 23.59813084112149
2410.0, 24.014945652173907
2411.0, 17.209474463360564
2412.0, 9.628906250000043
2413.0, 19.48529411764703
2414.0, 28.668076109936592
2415.0, 25.097168239866747
2416.0, 17.15160796324659
2417.0, 21.315600287563
2418.0, 29.884689301729665
2419.0, 31.95610071013553
2420.0, 31.097848280194754
2421.0, 38.90823005152487
2422.0, 34.69083685125402
2423.0, 30.561100022177854
2424.0, 27.494014365522744
2425.0, 28.527878847477595
2426.0, 30.592137352453378
2427.0, 33.467364877501396
2428.0, 37.26302795167974
2429.0, 47.31812311665951
2430.0, 58.26605826605826
2431.0, 54.989544123797565
2432.0, 56.40797148412185
2433.0, 56.474965623230595
2434.0, 55.324881141045964
2435.0, 55.02552648372686
2436.0, 60.2182453077259
2437.0, 67.96720129753112
2438.0, 77.75415539234639
2439.0, 75.67776169802222
2440.0, 76.39955064594649
2441.0, 77.06513828238724
2442.0, 75.15032035485464
2443.0, 74.27551020408166
2444.0, 73.17514364758463
2445.0, 75.99734777323462
2446.0, 71.80864351736199
2447.0, 69.47915377953731
2448.0, 83.45965225144896
2449.0, 82.91896869244935
2450.0, 79.74907749077491
2451.0, 75.72815533980585
2452.0, 72.66051912568308
2453.0, 76.85092127303186
2454.0, 75.52682840446258
2455.0, 67.43139901034635
2456.0, 66.44264194669753
2457.0, 56.6511085180864
2458.0, 42.4178154825026
2459.0, 51.54011461318049
2460.0, 66.03268148941878
2461.0, 71.09289617486351
2462.0, 67.72514315460691
2463.0, 55.30133928571433
2464.0, 67.37568266743315
2465.0, 56.44112689621957
2466.0, 60.17922794117645
2467.0, 45.62874251497003
2468.0, 37.250996015936224
2469.0, 37.42721979621542
2470.0, 49.79562043795622
2471.0, 57.99678893417317
2472.0, 61.434659090909115
2473.0, 60.03395174002669
2474.0, 56.38480878655549
2475.0, 56.22841965471445
2476.0, 60.11968085106387
2477.0, 65.5519268451992
2478.0, 61.587301587301525
2479.0, 58.698940998487146
2480.0, 55.87297538579261
2481.0, 49.789748835094905
2482.0, 50.28118902788936
2483.0, 52.42739968964754
2484.0, 54.30639838177364
2485.0, 43.78155117026157
2486.0, 39.937484972349125
2487.0, 39.22077922077923
2488.0, 34.4128154892244
2489.0, 30.762648411594853
2490.0, 33.419049578276045
2491.0, 29.050987015728893
2492.0, 30.810463121783883
2493.0, 38.045272341428905
2494.0, 35.06084311169056
2495.0, 46.5215082315454
2496.0, 45.40624595049892
2497.0, 38.79257346612564
2498.0, 31.43250688705234
2499.0, 35.345465305518545
2500.0, 39.55593268278883
2501.0, 40.26198359003885
2502.0, 42.10447087159415
2503.0, 52.311284046692585
2504.0, 51.08556832694766
2505.0, 48.01200300075019
2506.0, 47.634879854919134
2507.0, 44.36519258202564
2508.0, 54.89346959986147
2509.0, 56.34534786253147
2510.0, 69.50207468879667
2511.0, 82.0742867396375
2512.0, 78.80330999363461
2513.0, 79.69924812030072
2514.0, 78.33441769681194
2515.0, 79.60209881941411
2516.0, 76.37927417663096
2517.0, 75.50576462910588
2518.0, 66.44310306282131
2519.0, 80.7544612604472
2520.0, 70.89914945321989
2521.0, 67.98058252427185
2522.0, 58.57811038353595
2523.0, 47.518743305962104
2524.0, 39.84483787547244
2525.0, 29.656160458452774
2526.0, 27.42519534972365
2527.0, 25.639523530560467
2528.0, 22.248672404321596
2529.0, 30.267695844966283
2530.0, 31.634054239615494
2531.0, 30.814660413409797
2532.0, 31.243395561817564
2533.0, 21.40767824497256
2534.0, 26.32414203531043
2535.0, 29.246827670896465
2536.0, 29.66576707494295
2537.0, 34.93033488144712
2538.0, 38.604429626101464
2539.0, 49.45131916880695
2540.0, 51.83553597650512
2541.0, 51.10559006211179
2542.0, 50.590260698475184
2543.0, 44.655647382920144
2544.0, 43.5752688172043
2545.0, 43.14734561213435
2546.0, 45.72330654420205
2547.0, 53.84140697315646
2548.0, 50.60509554140133
2549.0, 46.982622432859365
2550.0, 50.321489001692015
2551.0, 50.48903878583468
2552.0, 44.463373083475254
2553.0, 32.752330766112706
2554.0, 33.963850357293
2555.0, 34.65058236272877
2556.0, 44.90413723511589
2557.0, 47.8510028653296
2558.0, 48.997555012225014
2559.0, 40.10238907849814
2560.0, 37.3015873015872
2561.0, 25.159235668789677
2562.0, 60.69221260815816
2563.0, 61.252495009980066
2564.0, 52.87529614473405
2565.0, 53.76162299239224
2566.0, 54.487042193189176
2567.0, 56.30602459870751
2568.0, 56.16552297775002
2569.0, 58.55289028706252
2570.0, 63.780068728522394
2571.0, 66.70352235033958
2572.0, 68.87946501386399
2573.0, 71.07589149649506
2574.0, 75.15546342907915
2575.0, 73.59721618094831
2576.0, 57.56256800870517
2577.0, 54.47056804530635
2578.0, 58.59331733431788
2579.0, 61.38750215183339
2580.0, 62.51748251748249
2581.0, 54.66027178257393
2582.0, 56.42902609802673
2583.0, 53.59322033898305
2584.0, 48.26152683295536
2585.0, 36.69527896995714
2586.0, 41.16469881929154
2587.0, 31.898934070272333
2588.0, 31.53403453066076
2589.0, 37.027206370272005
2590.0, 48.5069674850697
2591.0, 50.90529247910859
2592.0, 53.540039062499986
2593.0, 54.79809976247034
2594.0, 53.59309379374707
2595.0, 67.85625774473357
2596.0, 66.97224344283163
2597.0, 68.24191968658175
2598.0, 61.85273159144896
2599.0, 55.41604596722705
2600.0, 50.0
2601.0, 58.3551847437425
2602.0, 45.631497456315046
2603.0, 44.949608062709984
2604.0, 38.916500994035815
2605.0, 40.22604675057805
2606.0, 44.34687156970365
2607.0, 41.7241379310345
2608.0, 34.399431414356826
2609.0, 26.563321071991638
2610.0, 30.88526211671615
2611.0, 36.448385629831755
2612.0, 36.45667500568568
2613.0, 43.3712121212121
2614.0, 50.24478227261022
2615.0, 43.475037073653
2616.0, 53.12314098750745
2617.0, 42.08383233532942
2618.0, 40.20593869731804
2619.0, 36.232196806214915
2620.0, 30.940170940170987
2621.0, 24.18566775244301
2622.0, 41.745425296601674
2623.0, 67.57397786311269
2624.0, 70.42340578963632
2625.0, 69.55138402799874
2626.0, 68.21302267526518
2627.0, 70.16207771919541
2628.0, 71.55092161608636
2629.0, 71.10741049125724
2630.0, 72.0836685438455
2631.0, 80.04898101985472
2632.0, 75.85578118524653
2633.0, 76.68202764976955
2634.0, 81.71378860374068
2635.0, 83.51612375184149
2636.0, 82.55219613618638
2637.0, 71.27281947261663
2638.0, 60.36928017126042
2639.0, 51.63454501097828
2640.0, 51.95139911634756
2641.0, 40.37858422939071
2642.0, 31.81084198385234
2643.0, 41.456911262798606
2644.0, 44.48826860841422
2645.0, 37.97039213470445
2646.0, 39.63666391412052
2647.0, 35.018238665971836
2648.0, 37.71850963939663
2649.0, 38.064964736266965
2650.0, 36.33898985841949
2651.0, 41.63550953887449
2652.0, 43.57379351861138
2653.0, 44.29824561403505
2654.0, 48.96776161903799
2655.0, 53.0286343612335
2656.0, 63.68306658763091
2657.0, 61.70833333333335
2658.0, 53.948927917250316
2659.0, 47.408682348441445
2660.0, 51.23310970424269
2661.0, 54.56924315619967
2662.0, 51.02259342542029
2663.0, 40.97550720067279
2664.0, 41.13550021105957
2665.0, 31.48184883951599
2666.0, 37.0960143220579
2667.0, 45.74695547085619
2668.0, 49.33587985068146
2669.0, 55.251338745897364
2670.0, 50.0
2671.0, 43.72848948374762
2672.0, 51.159139189064334
2673.0, 61.376818484358644
2674.0, 61.89493433395872
2675.0, 68.28664753043648
2676.0, 66.08237547892725
2677.0, 69.89160166143245
2678.0, 70.43070970369612
2679.0, 81.77396943029183
2680.0, 80.37161740865446
2681.0, 79.05800957956362
2682.0, 68.4401802587586
2683.0, 71.18779031187793
2684.0, 69.94739756367663
2685.0, 76.39854853341399
2686.0, 68.29268292682929
2687.0, 68.03099208354385
2688.0, 67.29841488628531
2689.0, 71.57831686133578
2690.0, 82.67543859649118
2691.0, 78.53305558601043
2692.0, 67.5011809163912
2693.0, 67.70862667793115
2694.0, 66.09614665170223
2695.0, 59.894507093488585
2696.0, 65.24790375501276
2697.0, 60.37206401995434
2698.0, 48.72736590365561
2699.0, 52.01429499675117
2700.0, 55.56353194544153
2701.0, 51.69520257670794
2702.0, 55.25985241011149
2703.0, 51.72793494833137
2704.0, 43.08967445576193
2705.0, 45.358982445075114
2706.0, 56.01846372351754
2707.0, 57.811080835604
2708.0, 59.67797190818776
2709.0, 61.59830268741159
2710.0, 61.14490161001786
2711.0, 54.492104139991454
2712.0, 66.87180830168926
2713.0, 67.5599435825106
2714.0, 63.94511615269669
2715.0, 60.06891271056669
2716.0, 47.56608406760071
2717.0, 48.268490808037654
2718.0, 40.080275229357774
2719.0, 40.82347787998251
2720.0, 41.47292418772561
2721.0, 39.77711738484389
2722.0, 32.81713769518633
2723.0, 30.447796934865778
2724.0, 30.943889681407526
2725.0, 40.243902439024396
2726.0, 50.0
2727.0, 43.64046069103661
2728.0, 47.003994673768275
2729.0, 52.68237653547253
2730.0, 53.30374128091313
2731.0, 45.557388640113096
2732.0, 45.54665409990575
2733.0, 45.03203261502616
2734.0, 39.36952714535897
2735.0, 31.318623862804543
2736.0, 36.48093841642236
2737.0, 41.644349223352975
2738.0, 37.33103249928105
2739.0, 27.204762564031654
2740.0, 13.59719119055238
2741.0, 12.58493353028085
2742.0, 7.848022422921446
2743.0, 2.8822055137846405
2744.0, 2.602545968882751
2745.0, 22.075199790383863
2746.0, 20.697702984891336
2747.0, 46.26574419017208
2748.0, 47.28063814358233
2749.0, 55.87680079483362
2750.0, 63.358085808580874
2751.0, 60.76600458969696
2752.0, 56.39496355202121
2753.0, 65.27691350342258
2754.0, 62.14454976303326
2755.0, 60.430135057287366
2756.0, 64.53648462597528
2757.0, 68.09431105342857
2758.0, 71.49670679082449
2759.0, 69.08486266781628
2760.0, 75.44947303161811
2761.0, 62.10193372151537
2762.0, 60.650098286998066
2763.0, 59.198791714614536
2764.0, 49.91764124526439
2765.0, 52.05255925798693
2766.0, 57.02056387829162
2767.0, 53.703518091610725
2768.0, 60.74019556303222
2769.0, 61.424774056353
2770.0, 54.17456107111272
2771.0, 50.59912854030497
2772.0, 51.4824050983652
2773.0, 55.44529262086512
2774.0, 54.43663804319543
2775.0, 62.95516099909715
2776.0, 69.14443721535454
2777.0, 70.2020202020201
2778.0, 69.53364531224778
2779.0, 72.2281858610643
2780.0, 66.51862464183385
2781.0, 65.94287379772666
2782.0, 65.74820460208124
2783.0, 79.27707152703326
2784.0, 73.74558846094845
2785.0, 72.5096401028279
2786.0, 76.15339406406116
2787.0, 73.42393974128059
2788.0, 61.16520878032677
2789.0, 68.8519682682234
2790.0, 69.4330199764983
2791.0, 70.1220387652549
2792.0, 71.72859450726992
2793.0, 72.76457272212802
2794.0, 76.58972449739397
2795.0, 61.040080448211455
2796.0, 60.19958908130324
2797.0, 50.66072754268744
2798.0, 53.57757945827457
2799.0, 49.839282693283664
2800.0, 45.74565416285464
2801.0, 50.39317383302657
2802.0, 59.363636363636374
2803.0, 58.49582172701944
2804.0, 59.80215827338121
2805.0, 56.34057971014496
2806.0, 61.9884099963781
2807.0, 45.889387144992504
2808.0, 55.406186759178965
2809.0, 62.51834937204377
2810.0, 66.14614024749561
2811.0, 72.8166290686433
2812.0, 65.81520945847322
2813.0, 44.81216457960646
2814.0, 47.94225180463107
2815.0, 40.61659795662307
2816.0, 38.577353047241274
2817.0, 36.928346602481
2818.0, 36.01615326821939
2819.0, 38.17639936667595
2820.0, 39.32912896444568
2821.0, 42.92269326683293
2822.0, 41.216355044175074
2823.0, 40.01995012468826
2824.0, 37.06301025748374
2825.0, 30.60033109697656
2826.0, 32.017503874555544
2827.0, 43.09731255368757
2828.0, 40.47496790757385
2829.0, 43.525676421866365
2830.0, 54.652108258798854
2831.0, 51.742758959253834
2832.0, 50.91136079900125
2833.0, 53.4068017537623
2834.0, 51.09452736318401
2835.0, 52.35121702561489
2836.0, 48.11268387454894
2837.0, 51.676851989864325
2838.0, 47.64733468813504
2839.0, 71.11248966087685
2840.0, 74.55729696723
2841.0, 81.28540305010901
2842.0, 80.99557522123898
2843.0, 68.06097787692886
2844.0, 50.70930512142356
2845.0, 49.64689265536721
2846.0, 50.78232857800273
2847.0, 39.86308583464983
2848.0, 53.57723577235777
2849.0, 54.658006900751005
2850.0, 58.675545689974136
2851.0, 70.37615330021302
2852.0, 48.38017174082751
2853.0, 38.19519946474864
2854.0, 42.25660259415534
2855.0, 46.19585001820166
2856.0, 52.899936265137065
2857.0, 58.13694045460885
2858.0, 57.69842917445157
2859.0, 58.22767172913471
2860.0, 56.73576925743603
2861.0, 60.79881656804733
2862.0, 58.55996736469947
2863.0, 58.97280560043078
2864.0, 56.500624392951266
2865.0, 50.189453741711404
2866.0, 66.08460658975156
2867.0, 84.43559096945555
2868.0, 78.42643354571041
2869.0, 77.28194726166326
2870.0, 58.95166780122534
2871.0, 62.90752511790037
2872.0, 66.10644257703089
2873.0, 68.31822759315213
2874.0, 64.1209829867675
2875.0, 48.73679375287092
2876.0, 33.56070941336969
2877.0, 26.382608695652166
2878.0, 24.121481952615653
2879.0, 24.396868509346376
2880.0, 27.368763204940677
2881.0, 26.599273416521825
2882.0, 26.076184577268535
2883.0, 17.040133779264096
2884.0, 21.392016376663108
2885.0, 13.63553280935838
2886.0, 12.915512465373894
2887.0, 7.295825771324871
2888.0, 7.622298065984097
2889.0, 18.33723231959695
2890.0, 37.747731061307746
2891.0, 44.083928185161206
2892.0, 55.68450971103729
2893.0, 57.91722896986059
2894.0, 58.66106937693316
2895.0, 65.05499066196313
2896.0, 73.47916666666652
2897.0, 77.91336180597929
2898.0, 75.37203940473701
2899.0, 67.22751916246028
2900.0, 74.1596205403176
2901.0, 80.21219265746048
2902.0, 85.72639430411937
2903.0, 86.18766404199475
2904.0, 69.00765846504814
2905.0, 54.273997180571605
2906.0, 58.112232918525535
2907.0, 51.07212475633525
2908.0, 48.870703764320815
2909.0, 49.092884302009764
2910.0, 45.31181379007465
2911.0, 49.152715394038395
2912.0, 50.14776317130336
2913.0, 52.28431789205267
2914.0, 57.00853880840451
2915.0, 48.1690709169777
2916.0, 43.35752298016445
2917.0, 37.28899735611141
2918.0, 46.951282850316794
2919.0, 48.67542537152698
2920.0, 43.62431984859238
2921.0, 48.82181625628808
2922.0, 42.784222737819036
2923.0, 39.17869034406219
2924.0, 44.36045116390691
2925.0, 32.508112005768524
2926.0, 34.06903028880019
2927.0, 31.935732364916916
2928.0, 28.455754771544306
2929.0, 30.53245624922431
2930.0, 37.20571208027796
2931.0, 40.099659061106806
2932.0, 34.35838482540588
2933.0, 43.70044052863431
2934.0, 38.19397993311039
2935.0, 48.62618007608853
2936.0, 57.335105499252336
2937.0, 57.27121464226287
2938.0, 47.08346761198843
2939.0, 55.986251670803874
2940.0, 32.33702337023365
2941.0, 30.90759463907824
2942.0, 23.46880366342289
2943.0, 26.17719259093937
2944.0, 22.307692307692108
2945.0, 25.48625083836346
2946.0, 42.697498495658884
2947.0, 48.45344880915561
2948.0, 48.01532567049808
2949.0, 32.886165752982876
2950.0, 34.966055453334135
2951.0, 41.075021557918916
2952.0, 42.51457812685942
2953.0, 43.11035213755744
2954.0, 53.13859089591186
2955.0, 58.61249703017349
2956.0, 64.36809420114528
2957.0, 66.86417160429014
2958.0, 68.42790025298159
2959.0, 67.21459130826389
2960.0, 59.719660641829606
2961.0, 49.71663083838183
2962.0, 42.133156674395465
2963.0, 63.957597173144876
2964.0, 63.385184379419115
2965.0, 49.25408199224718
2966.0, 52.341441236644734
2967.0, 49.50151226615878
2968.0, 53.17823016202746
2969.0, 55.357496533967094
2970.0, 51.884838442419166
2971.0, 43.63888247517901
2972.0, 34.30757785099375
2973.0, 33.846803123021786
2974.0, 30.875576036866377
2975.0, 39.92602262837257
2976.0, 55.69546967723263
2977.0, 44.66385287910765
2978.0, 40.23571535133529
2979.0, 51.78515007898891
2980.0, 52.82843894899535
2981.0, 51.803576841467105
2982.0, 45.749535237451425
2983.0, 38.60680562978808
2984.0, 36.73503983726064
2985.0, 49.00072939460248
2986.0, 53.275178429817544
2987.0, 54.25140112089673
2988.0, 55.786675007819845
2989.0, 42.458888018794056
2990.0, 42.799314961855934
2991.0, 49.754017710724824
2992.0, 53.979763912310325
2993.0, 47.58445332364691
2994.0, 43.31172657631111
2995.0, 40.9394727070183
2996.0, 34.30304915992545
2997.0, 42.95321219058526
2998.0, 53.35166273893688
2999.0, 43.9884040280745
3000.0, 48.75697615423651
3001.0, 49.51682772409191
3002.0, 45.055654137764144
3003.0, 54.131564796558536
3004.0, 59.52230306864917
3005.0, 52.3874077421298
3006.0, 54.29438982070558
3007.0, 52.27620771265498
3008.0, 47.232375979112305
3009.0, 57.27402043191521
3010.0, 66.59182757072301
3011.0, 68.51904090267986
3012.0, 59.39118154715212
3013.0, 55.191017789442924
3014.0, 51.32899376186601
3015.0, 56.47058823529419
3016.0, 57.030867221950004
3017.0, 59.29449988396382
3018.0, 51.984971822166614
3019.0, 55.1921287062891
3020.0, 53.92398140552365
3021.0, 57.962328767123296
3022.0, 63.69863013698636
3023.0, 67.36635880212708
3024.0, 65.0210226502102
3025.0, 59.6653112292775
3026.0, 59.39592090923253
3027.0, 63.4881011815611
3028.0, 73.16239316239319
3029.0, 66.48484848484847
3030.0, 75.57743957027762
3031.0, 71.60194174757282
3032.0, 73.20099255583133
3033.0, 78.55555555555571
3034.0, 73.89298892988938
3035.0, 73.80599777860053
3036.0, 76.89041319614572
3037.0, 56.21458923512761
3038.0, 59.37956204379572
3039.0, 59.964028776978495
3040.0, 58.39901909266063
3041.0, 60.28933092224226
3042.0, 60.1451905626135
3043.0, 60.79618418638787
3044.0, 50.734198765694856
3045.0, 52.47545435554637
3046.0, 49.225945522241744
3047.0, 44.731228668942
3048.0, 41.25516427306715
3049.0, 44.97880965542671
3050.0, 33.518445061483675
3051.0, 51.26407478223921
3052.0, 50.73024054982816
3053.0, 40.85487077534792
3054.0, 41.75980491769974
3055.0, 55.036084091622286
3056.0, 53.96723417924832
3057.0, 54.0540540540541
3058.0, 57.52577319587628
3059.0, 57.79353821907007
3060.0, 64.95013895700515
3061.0, 65.72890025575447
3062.0, 75.96262284517488
3063.0, 67.71840811796423
3064.0, 77.53564702717253
3065.0, 72.4385687598793
3066.0, 74.07056914965534
3067.0, 82.23721998851238
3068.0, 89.13421651277937
3069.0, 87.5764993880049
3070.0, 88.11997073884422
3071.0, 87.99123447772092
3072.0, 88.19813352476666
3073.0, 83.75385477992705
3074.0, 81.82736720554271
3075.0, 81.21175943888974
3076.0, 79.87853603963558
3077.0, 80.36661842740001
3078.0, 72.03041512535975
3079.0, 76.98986975397992
3080.0, 77.03734268619779
3081.0, 77.50151607034584
3082.0, 73.56922346236064
3083.0, 74.988764044944
3084.0, 72.66699410609056
3085.0, 74.28164331512724
3086.0, 74.75524475524492
3087.0, 85.64003849855658
3088.0, 87.49031758326898
3089.0, 79.36420433664104
3090.0, 73.62831858407085
3091.0, 81.61778441995129
3092.0, 77.3274336283185
3093.0, 78.01990391214821
3094.0, 73.21942446043147
3095.0, 74.95795492768234
3096.0, 74.40701271914727
3097.0, 70.31280739720624
3098.0, 65.25374295158448
3099.0, 69.01872399445203
3100.0, 67.15677265208592
3101.0, 58.51903435468881
3102.0, 55.51279148743481
3103.0, 61.91919191919188
3104.0, 70.9669211195929
3105.0, 57.51226036558185
3106.0, 68.09989142236694
3107.0, 58.97932816537452
3108.0, 64.66791588590466
3109.0, 60.42444029850737
3110.0, 61.65838228648901
3111.0, 62.11025756891097
3112.0, 71.57659488013007
3113.0, 67.73523985239848
3114.0, 64.69364161849711
3115.0, 69.58167330677296
3116.0, 67.3025048169557
3117.0, 71.8812877263581
3118.0, 71.97994987468667
3119.0, 81.74573055028438
3120.0, 80.9956538917422
3121.0, 81.77104108496194
3122.0, 77.20785935884157
3123.0, 77.44114636642769
3124.0, 65.66862601028632
3125.0, 58.74091209517502
3126.0, 52.09816410640692
3127.0, 23.82628021113075
3128.0, 21.35978748132169
3129.0, 26.090348755559106
3130.0, 26.272784412319368
3131.0, 21.367521367521476
3132.0, 19.691912708600924
3133.0, 22.30730814050284
3134.0, 19.989713697925623
3135.0, 20.213227008754473
3136.0, 18.93471906463141
3137.0, 21.230769230769226
3138.0, 27.28205128205127
3139.0, 28.33032934622318
3140.0, 32.87491308042955
3141.0, 48.96996202094601
3142.0, 58.29015544041456
3143.0, 42.075736325385726
3144.0, 49.04214559386976
3145.0, 45.626542363586566
3146.0, 41.734733566705515
3147.0, 47.98009028822778
3148.0, 45.21653758045164
3149.0, 47.3585322723254
3150.0, 58.04133967060905
3151.0, 58.087666997902204
3152.0, 55.64902441874051
3153.0, 52.75808595480722
3154.0, 45.95596755504058
3155.0, 59.24996864417418
3156.0, 60.19358000490082
3157.0, 70.553471985453
3158.0, 68.59774572779067
3159.0, 67.05366662717688
3160.0, 72.79642598406188
3161.0, 66.1902760263417
3162.0, 74.30830039525695
3163.0, 74.23455440131222
3164.0, 72.71279675738282
3165.0, 70.07936507936515
3166.0, 64.18950301904331
3167.0, 75.46235619630124
3168.0, 79.9938252547083
3169.0, 74.616292798111
3170.0, 75.95078299776286
3171.0, 60.349040139616044
3172.0, 68.50568339340177
3173.0, 77.7180067950171
3174.0, 73.32474226804132
3175.0, 75.04396248534589
3176.0, 73.9363330272422
3177.0, 72.11509029690856
3178.0, 69.56231206147685
3179.0, 68.15034619188928
3180.0, 73.92058262528185
3181.0, 70.39370078740166
3182.0, 71.10251450676984
3183.0, 74.30513897220558
3184.0, 65.63403552251151
3185.0, 78.20170109356025
3186.0, 71.14827918945008
3187.0, 60.93006224826088
3188.0, 69.27330173775701
3189.0, 55.50632911392427
3190.0, 55.66067486597303
3191.0, 43.49433218334163
3192.0, 31.83384727008884
3193.0, 42.39696826148736
3194.0, 44.25427872860627
3195.0, 36.3597430406852
3196.0, 38.467908902691455
3197.0, 33.11633514165159
3198.0, 34.14118816803378
3199.0, 33.89471057884239
3200.0, 25.616990982439518
3201.0, 27.461941008563244
