0, -87145
1, 129480
2, -77963
3, 83330
4, 258065
5, 108418
6, 256945
7, 114021
8, -139573
9, 107071
10, 263662
11, 38297
12, -229182
13, -370092
14, 89374
15, 220425
16, -13452
17, -275104
18, -114033
19, 103489
20, 724469
21, 1083350
22, 738134
23, 1152124
24, 1506970
25, 1724718
26, 2049998
27, 2209948
28, 2010569
29, 1834935
30, 2492431
31, 2096140
32, 1769070
33, 1223804
34, 1664672
35, 1321696
36, 984096
37, 1316094
38, 1031364
39, 1274200
40, 794574
41, 1079748
42, 801966
43, 1072585
44, 1320349
45, 1618071
46, 1939768
47, 1692004
48, 1905496
49, 2201200
50, 1912886
51, 2097925
52, 1854192
53, 1616954
54, 1820142
55, 2110696
56, 2391167
57, 2170956
58, 1949624
59, 2112039
60, 2434851
61, 2101286
62, 2253395
63, 2392732
64, 2124805
65, 2367641
66, 2128166
67, 1803563
68, 2128617
69, 1840081
70, 1633088
71, 1779594
72, 1627711
73, 1872339
74, 2215315
75, 2030050
76, 2188657
77, 1742857
78, 1531829
79, 1759210
80, 1601055
81, 1213502
82, 3666071
83, 3186445
84, 3483717
85, 4071098
86, 4423704
87, 4601129
88, 4484864
89, 4318192
90, 4318192
91, 4566404
92, 4731281
93, 4480158
94, 4265771
95, 4117020
96, 3947885
97, 3750747
98, 3984175
99, 4117467
100, 3770013
101, 4037268
102, 3802943
103, 4123737
104, 3847521
105, 4016881
106, 3833407
107, 4103801
108, 4324238
109, 4469402
110, 4134715
111, 3864995
112, 3668305
113, 3778075
114, 3972075
115, 4272935
116, 4097527
117, 4300715
118, 4053618
119, 3800699
120, 3948105
121, 4064370
122, 4148601
123, 4057872
124, 3938245
125, 3996489
126, 3891871
127, 4051371
128, 3929280
129, 4167415
130, 4307877
131, 4414287
132, 4560793
133, 4410697
134, 4339682
135, 4233720
136, 4306975
137, 4212662
138, 4078474
139, 4179059
140, 4553620
141, 4553620
142, 4350884
143, 4119694
144, 3661124
145, 3908221
146, 4351780
147, 4040393
148, 3871483
149, 3953697
150, 4110288
151, 4446543
152, 4160470
153, 3923682
154, 4097297
155, 4263520
156, 3762835
157, 3917185
158, 4129331
159, 4477235
160, 4754570
161, 5029442
162, 5338364
163, 5474796
164, 4392554
165, 4816177
166, 5298266
167, 5656699
168, 6073823
169, 5770723
170, 6094206
171, 6297394
172, 6457344
173, 6612813
174, 6986252
175, 6831005
176, 7029485
177, 6898881
178, 6678893
179, 6895743
180, 6824281
181, 6909183
182, 6798744
183, 6935176
184, 7118874
185, 7262695
186, 7452885
187, 7303691
188, 7399126
189, 7441242
190, 7249482
191, 7710738
192, 7941476
193, 7744115
194, 7891521
195, 8397805
196, 8137493
197, 7980679
198, 7842458
199, 8180278
200, 8327007
201, 8029510
202, 7845146
203, 7668843
204, 7249031
205, 7249031
206, 7432729
207, 7157410
208, 6513804
209, 6601397
210, 6428903
211, 6530834
212, 6411434
213, 6283072
214, 6559064
215, 6880761
216, 6704680
217, 6848054
218, 6998595
219, 7149584
220, 7316925
221, 7202677
222, 7107467
223, 6991872
224, 7089546
225, 7212311
226, 7365312
227, 7184304
228, 7276376
229, 7421764
230, 7602772
231, 7506219
232, 7336634
233, 7534216
234, 7365974
235, 7101182
236, 6966769
237, 7064665
238, 6957359
239, 7036887
240, 7119327
241, 7540036
242, 7250828
243, 7508225
244, 7508225
245, 7312654
246, 7621128
247, 7462073
248, 7145308
249, 6983116
250, 7117529
251, 6906278
252, 6716756
253, 6860799
254, 7001934
255, 6797403
256, 6653360
257, 6869764
258, 7045845
259, 6761341
260, 6886346
261, 6741405
262, 7061529
263, 7207813
264, 7334609
265, 7493888
266, 7728662
267, 7564012
268, 7758237
269, 7690136
270, 7561548
271, 7484931
272, 7373817
273, 7709176
274, 8010036
275, 8194400
276, 7951785
277, 8183422
278, 7993005
279, 7862401
280, 7972394
281, 7667504
282, 7544739
283, 7611497
284, 7611497
285, 7753299
286, 8027948
287, 8167962
288, 8075665
289, 7617991
290, 7442357
291, 7661226
292, 7332590
293, 7332590
294, 7661899
295, 7901823
296, 8091791
297, 8275489
298, 8463440
299, 8553497
300, 8692168
301, 8563133
302, 8463221
303, 8309095
304, 8110839
305, 7865539
306, 7697974
307, 7566027
308, 7425342
309, 7566699
310, 7938123
311, 7610832
312, 8007123
313, 7848742
314, 7966577
315, 7825892
316, 8180067
317, 7881446
318, 8206726
319, 7751966
320, 7492101
321, 7717015
322, 7396221
323, 7247249
324, 7074755
325, 6824079
326, 6571834
327, 6870455
328, 6686757
329, 6469907
330, 6634339
331, 6922205
332, 6643747
333, 6837079
334, 7117104
335, 6853434
336, 6996358
337, 7322530
338, 2952799
339, 3721186
340, 3216466
341, 3733951
342, 3424803
343, 3845736
344, 4237099
345, 3965136
346, 3589455
347, 3995375
348, 3691155
349, 4075797
350, 4360751
351, 5025420
352, 4543331
353, 4981962
354, 5375116
355, 5033710
356, 4745844
357, 5087473
358, 4748084
359, 4445658
360, 4670572
361, 4924387
362, 5311492
363, 5107857
364, 4723215
365, 4316619
366, 4033456
367, 3815262
368, 3641201
369, 3884934
370, 4226563
371, 4065718
372, 3920777
373, 3772923
374, 3899045
375, 3549127
376, 3356244
377, 3164484
378, 3417627
379, 3737078
380, 3438011
381, 3105116
382, 3105116
383, 3298670
384, 3065018
385, 2759005
386, 2372121
387, 2163114
388, 2391164
389, 2688216
390, 2419615
391, 1853068
392, 1853068
393, 1600149
394, 2095905
395, 1702526
396, 1300858
397, 1678331
398, 2101954
399, 1655706
400, 1982104
401, 1534512
402, 1150543
403, 448464
404, 838035
405, 1132396
406, 1413542
407, 1674749
408, 1900559
409, 2276016
410, 2714200
411, 3012598
412, 3217129
413, 3217129
414, 3602445
415, 4119039
416, 3705276
417, 3296217
418, 2968030
419, 3319292
420, 3319292
421, 2989312
422, 3187568
423, 2914938
424, 2528280
425, 3055175
426, 3657340
427, 4053857
428, 4510410
429, 4958672
430, 4612112
431, 4889447
432, 5568225
433, 6308609
434, 6839533
435, 6556370
436, 6853422
437, 7293845
438, 7001723
439, 6611483
440, 6766507
441, 6233343
442, 6608578
443, 6844472
444, 7261596
445, 6818711
446, 7364202
447, 7042064
448, 6621131
449, 6302129
450, 5991414
451, 5518956
452, 5124680
453, 5409410
454, 5655834
455, 5141933
456, 4771628
457, 5269626
458, 5859694
459, 5555249
460, 5354078
461, 5541135
462, 5795845
463, 5538892
464, 5277907
465, 5732892
466, 5312632
467, 4989149
468, 5296053
469, 5574285
470, 5760668
471, 6050776
472, 6213412
473, 6652043
474, 6335502
475, 5994320
476, 6302348
477, 6108348
478, 6459610
479, 5841986
480, 6247013
481, 6797208
482, 7411247
483, 7194843
484, 6770772
485, 7173784
486, 7489429
487, 7193275
488, 6786006
489, 6369328
490, 6644647
491, 9963728
492, 9208333
493, 9779414
494, 10325260
495, 9864675
496, 10293673
497, 10747538
498, 10195558
499, 9622516
500, 10263214
501, 10751119
502, 9778203
503, 10493274
504, 11299975
505, 10361105
506, 9863332
507, 10413305
508, 11160859
509, 11709707
510, 11943584
511, 12257212
512, 11641159
513, 12024010
514, 12247583
515, 11674768
516, 11865405
517, 12037680
518, 12374384
519, 11932616
520, 12246018
521, 11942470
522, 11433497
523, 11231205
524, 10878599
525, 10609103
526, 10806911
527, 11124569
528, 11286761
529, 11448505
530, 11258537
531, 11481886
532, 11206344
533, 11602411
534, 11792601
535, 12006318
536, 11768632
537, 11442907
538, 13331506
539, 14193981
540, 13519457
541, 13885953
542, 14288965
543, 13984520
544, 13984520
545, 13531106
546, 13923586
547, 14410830
548, 14175386
549, 14576380
550, 14138420
551, 14529335
552, 14830416
553, 14219433
554, 14712067
555, 14321152
556, 13746111
557, 14111931
558, 14679687
559, 15033975
560, 15425004
561, 15742888
562, 15228873
563, 14751734
564, 15037249
565, 15299800
566, 15586098
567, 15166955
568, 15956736
569, 15956736
570, 15695306
571, 15404418
572, 15088888
573, 15298571
574, 15037702
575, 14670422
576, 14939023
577, 15226774
578, 15912833
579, 15673133
580, 15355249
581, 14980014
582, 15217700
583, 14595710
584, 14212523
585, 14675907
586, 14974974
587, 15200225
588, 14866660
589, 15160238
590, 15251863
591, 15519342
592, 15693965
593, 15457063
594, 15113080
595, 15369584
596, 15727119
597, 16034921
598, 15484726
599, 15976003
600, 16663408
601, 14824991
602, 15657899
603, 16240010
604, 15807315
605, 15304611
606, 14529727
607, 13909640
608, 14493436
609, 15246370
610, 16142784
611, 16716837
612, 15983281
613, 16655448
614, 15999741
615, 17082874
616, 16205837
617, 16862098
618, 16377543
619, 16174131
620, 15757453
621, 16479133
622, 17536508
623, 17046802
624, 16518229
625, 17040419
626, 16599324
627, 16899402
628, 16577601
629, 16290297
630, 16571890
631, 16920017
632, 17135635
633, 16765218
634, 16392225
635, 15774939
636, 15175127
637, 14455351
638, 14963205
639, 14518413
640, 14224052
641, 14588308
642, 13873574
643, 14297081
644, 14733358
645, 15094031
646, 15734614
647, 15440476
648, 15250954
649, 15521458
650, 15676033
651, 16213682
652, 16579502
653, 16862665
654, 16641781
655, 16460662
656, 16771715
657, 16584209
658, 16892348
659, 16567968
660, 16282794
661, 16503231
662, 16177846
663, 16477583
664, 16920917
665, 17632740
666, 16769256
667, 17918924
668, 18779605
669, 18183714
670, 18637691
671, 18873135
672, 18430250
673, 18937655
674, 19537579
675, 18893188
676, 19153276
677, 19554719
678, 19828583
679, 19392753
680, 19936301
681, 19495477
682, 19932651
683, 20304553
684, 19907590
685, 19498531
686, 19058108
687, 18661001
688, 19109600
689, 19567312
690, 19705309
691, 19292542
692, 19810027
693, 20534169
694, 20028669
695, 19498624
696, 19158899
697, 18886603
698, 19122720
699, 19408254
700, 19598110
701, 19880266
702, 19531300
703, 19827140
704, 19407661
705, 19102321
706, 18693262
707, 19237294
708, 18669517
709, 19167846
710, 20091815
711, 20250310
712, 19933434
713, 19707465
714, 19929692
715, 19675990
716, 19320807
717, 18831660
718, 19888395
719, 19173548
720, 18629180
721, 19119667
722, 18481432
723, 17888679
724, 18179792
725, 17849219
726, 17365952
727, 16866322
728, 15022344
729, 14275843
730, 15216319
731, 14557771
732, 15261305
733, 15828090
734, 16370106
735, 15754245
736, 16418689
737, 16872440
738, 16071524
739, 15228537
740, 14767400
741, 14087501
742, 15008519
743, 16264001
744, 21989609
745, 22677671
746, 22026492
747, 22814033
748, 22137201
749, 22608254
750, 22258662
751, 22738066
752, 23156534
753, 22535125
754, 21961411
755, 21420408
756, 20853190
757, 21632644
758, 20777731
759, 21398491
760, 20515186
761, 21235524
762, 20704374
763, 21318300
764, 20676932
765, 21241686
766, 20436785
767, 19392965
768, 20242017
769, 19713953
770, 21070731
771, 21430899
772, 21883755
773, 21554337
774, 21274201
775, 20965402
776, 21336045
777, 21797412
778, 22216664
779, 21878170
780, 22238617
781, 22659953
782, 22417589
783, 22115501
784, 22398215
785, 21912651
786, 21574451
787, 22055135
788, 22886903
789, 24553861
790, 23690345
791, 24454735
792, 23826809
793, 24178620
794, 24588532
795, 25067974
796, 24618873
797, 24233467
798, 24753246
799, 25234358
800, 24890017
801, 25229156
802, 25655228
803, 25267645
804, 25640031
805, 26064208
806, 26388036
807, 26586791
808, 26348104
809, 26683003
810, 27086101
811, 26628013
812, 27176547
813, 26762687
814, 27108549
815, 26522222
816, 26901862
817, 27312568
818, 27868177
819, 26741497
820, 26244141
821, 26682862
822, 27191916
823, 27716484
824, 27319533
825, 26710705
826, 26128741
827, 25604244
828, 25969379
829, 26602494
830, 26967461
831, 26564446
832, 26083124
833, 26495026
834, 25687846
835, 26080264
836, 25578532
837, 26248698
838, 25421505
839, 30820031
840, 30127888
841, 30761954
842, 30119713
843, 29703449
844, 29247959
845, 29721303
846, 29383773
847, 29748588
848, 29483455
849, 28992962
850, 28550090
851, 28916651
852, 29758270
853, 26803072
854, 25731281
855, 26501859
856, 25666674
857, 25042810
858, 25497887
859, 25093007
860, 25551397
861, 26225662
862, 25742044
863, 26223812
864, 25679529
865, 26076535
866, 26322456
867, 26046333
868, 26457201
869, 26830070
870, 26547888
871, 26867479
872, 26687392
873, 27027418
874, 26720900
875, 26339471
876, 26734345
877, 26446672
878, 26660125
879, 26256272
880, 26579762
881, 26981256
882, 27277394
883, 27083101
884, 26771141
885, 27186517
886, 26845862
887, 27185706
888, 27388926
889, 26924804
890, 27283033
891, 26837005
892, 27293989
893, 26774372
894, 27611618
895, 26953346
896, 28100362
897, 28765674
898, 28384891
899, 27898948
900, 27575894
901, 27917432
902, 27652569
903, 27040332
904, 27687354
905, 28099868
906, 27276312
907, 26846563
908, 26180695
909, 25646187
910, 24775085
911, 23960436
912, 25096207
913, 25784976
914, 25106547
915, 24209650
916, 25517260
917, 24903422
918, 25963060
919, 25131537
920, 24367136
921, 23466969
922, 22775399
923, 22097872
924, 22861035
925, 23689357
926, 24287848
927, 24707824
928, 25036730
929, 25409761
930, 24861525
931, 24366036
932, 24677160
933, 24301404
934, 23955965
935, 23592786
936, 24263286
937, 23920528
938, 24260310
939, 23768525
940, 23262944
941, 23262944
942, 24552357
943, 25226064
944, 25874853
945, 26286539
946, 26387057
947, 25706975
948, 26510987
949, 27222979
950, 26723626
951, 27278332
952, 28077603
953, 27106439
954, 27906503
955, 27099101
956, 27789996
957, 27232592
958, 27931774
959, 27353835
960, 26803013
961, 27526053
962, 27060661
963, 27647606
964, 27527897
965, 27784801
966, 27503136
967, 27825497
968, 28272499
969, 28741935
970, 28201358
971, 27380684
972, 26778253
973, 27536256
974, 26711236
975, 26334063
976, 27014829
977, 26384809
978, 27102604
979, 26003218
980, 25162731
981, 25643344
982, 25196597
983, 25586748
984, 25990126
985, 26304928
986, 26856138
987, 26456237
988, 26014177
989, 25096484
990, 26087855
991, 25367626
992, 26370131
993, 27269923
994, 26631421
995, 26040554
996, 26505537
997, 27011057
998, 26507083
999, 25999969
1000, 25651817
1001, 25154315
1002, 24642843
1003, 24084495
1004, 24763264
1005, 25814657
1006, 26410912
1007, 27048341
1008, 26119348
1009, 25557312
1010, 26022353
1011, 25520813
1012, 24907611
1013, 24405915
1014, 24863899
1015, 24518233
1016, 24935926
1017, 25248560
1018, 24887257
1019, 25370036
1020, 26018770
1021, 26624923
1022, 26093734
1023, 26467618
1024, 26199150
1025, 26480417
1026, 26865988
1027, 26597703
1028, 26063142
1029, 26456886
1030, 26022181
1031, 26519327
1032, 26843796
1033, 26843796
1034, 26427817
1035, 26655094
1036, 27043498
1037, 26685986
1038, 26330304
1039, 26751917
1040, 25509489
1041, 24927937
1042, 24380763
1043, 24830896
1044, 24274428
1045, 24786717
1046, 25224639
1047, 24875722
1048, 24345820
1049, 24702663
1050, 25115700
1051, 24730005
1052, 25057009
1053, 24653676
1054, 25151718
1055, 24791860
1056, 25103912
1057, 24801586
1058, 25071780
1059, 24684711
1060, 25018043
1061, 24734334
1062, 25053929
1063, 25355551
1064, 25027271
1065, 24762740
1066, 24588808
1067, 24874637
1068, 24571017
1069, 24120104
1070, 24476237
1071, 24794515
1072, 25231276
1073, 24709919
1074, 24963932
1075, 24574555
1076, 24852195
1077, 25157973
1078, 25590464
1079, 25892943
1080, 25574611
1081, 25341552
1082, 25008415
1083, 25267982
1084, 25055618
1085, 24778353
1086, 24518732
1087, 24734984
1088, 25002303
1089, 25214595
1090, 25613511
1091, 25774062
1092, 25511925
1093, 25740546
1094, 25585390
1095, 25343967
1096, 25157620
1097, 24943141
1098, 25137153
1099, 25276318
1100, 25383303
1101, 25558615
1102, 25967018
1103, 26323940
1104, 25889324
1105, 26184392
1106, 25959446
1107, 26121888
1108, 26365655
1109, 26170320
1110, 25834958
1111, 25489051
1112, 25126063
1113, 25311918
1114, 25133096
1115, 25358699
1116, 25506563
1117, 25371254
1118, 25148362
1119, 25277889
1120, 25182589
1121, 25396273
1122, 25538557
1123, 25717832
1124, 25570689
1125, 25392895
1126, 25602498
1127, 25715542
1128, 25804249
1129, 26011134
1130, 25878623
1131, 25779333
1132, 25646071
1133, 25495498
1134, 25385337
1135, 25255373
1136, 25061573
1137, 24941567
1138, 25092895
1139, 25313331
1140, 25490706
1141, 25743434
1142, 25963633
1143, 26151597
1144, 26377057
1145, 26568345
1146, 26692837
1147, 26476591
1148, 26080456
1149, 26299753
1150, 26523787
1151, 26828614
1152, 26668572
1153, 26525201
1154, 26700384
1155, 26827078
1156, 26591462
1157, 26357068
1158, 26227577
1159, 26404194
1160, 26589072
1161, 26731613
1162, 26983991
1163, 27148014
1164, 27028810
1165, 27313665
1166, 27641270
1167, 26983471
1168, 26777419
1169, 27097823
1170, 26854739
1171, 26653701
1172, 26851307
1173, 26606723
1174, 26336341
1175, 26034778
1176, 25843392
1177, 26117938
1178, 25662730
1179, 25166197
1180, 25440144
1181, 25246033
1182, 25446426
1183, 25271564
1184, 25455456
1185, 25152088
1186, 25332632
1187, 25182409
1188, 25347004
1189, 25625739
1190, 26014939
1191, 25811451
1192, 25624327
1193, 25489400
1194, 25574377
1195, 25472892
1196, 25530520
1197, 25488292
1198, 25714895
1199, 25877802
1200, 26154249
1201, 26017805
1202, 26124809
1203, 26219392
1204, 26367054
1205, 26505672
1206, 26284673
1207, 26363245
1208, 26177160
1209, 26416796
1210, 26566517
1211, 26436389
1212, 26144537
1213, 26406400
1214, 26596850
1215, 26384035
1216, 26480324
1217, 26606993
1218, 26428845
1219, 26319883
1220, 26104870
1221, 26385108
1222, 26216771
1223, 26665749
1224, 26665749
1225, 26755087
1226, 26860056
1227, 27212577
1228, 27315781
1229, 27261177
1230, 27108276
1231, 27248141
1232, 27143348
1233, 27043924
1234, 26785771
1235, 26785771
1236, 26618983
1237, 26771114
1238, 26614816
1239, 26400970
1240, 26535756
1241, 26680128
1242, 26536900
1243, 26421210
1244, 26098020
1245, 26235766
1246, 26346257
1247, 25807796
1248, 26630684
1249, 27189187
1250, 26871251
1251, 26372391
1252, 26580060
1253, 26751786
1254, 26880525
1255, 26638156
1256, 26782578
1257, 26635941
1258, 26841941
1259, 26985582
1260, 27228430
1261, 27469526
1262, 27469526
1263, 27596591
1264, 28076784
1265, 27845858
1266, 28154712
1267, 28315724
1268, 28556006
1269, 28386183
1270, 28568379
1271, 28714347
1272, 28579732
1273, 28212184
1274, 28023468
1275, 28224772
1276, 28052227
1277, 27772881
1278, 27948502
1279, 28042525
1280, 28149480
1281, 28019660
1282, 28158447
1283, 28281290
1284, 28466604
1285, 28631406
1286, 28787870
1287, 28981274
1288, 29172676
1289, 29445932
1290, 29753566
1291, 30066493
1292, 30699793
1293, 30960935
1294, 30706034
1295, 30891619
1296, 31043015
1297, 31174058
1298, 30992246
1299, 30714713
1300, 30999976
1301, 31345021
1302, 31009199
1303, 31342957
1304, 31041688
1305, 30734950
1306, 30422005
1307, 30080359
1308, 30316662
1309, 30479440
1310, 30681066
1311, 30365353
1312, 29956829
1313, 30193688
1314, 29830622
1315, 29605925
1316, 29277682
1317, 28878604
1318, 28726938
1319, 28550526
1320, 28895471
1321, 29193801
1322, 28861132
1323, 28673503
1324, 29034397
1325, 28827696
1326, 28491052
1327, 28319786
1328, 28113362
1329, 27871843
1330, 28015648
1331, 28141527
1332, 27981652
1333, 28195043
1334, 28433261
1335, 28308822
1336, 28500943
1337, 28404497
1338, 28245138
1339, 28067617
1340, 27841355
1341, 28208085
1342, 28412091
1343, 28214279
1344, 28016359
1345, 27783436
1346, 27988260
1347, 27793360
1348, 27965996
1349, 28078609
1350, 28169733
1351, 28066751
1352, 28293969
1353, 28145095
1354, 28041785
1355, 27865724
1356, 27681442
1357, 27843721
1358, 27578901
1359, 27895518
1360, 28086621
1361, 28258690
1362, 27990154
1363, 27809145
1364, 27614586
1365, 27942421
1366, 28097304
1367, 27874875
1368, 28139308
1369, 28218802
1370, 28439252
1371, 28439252
1372, 28260097
1373, 28063643
1374, 28214885
1375, 28068191
1376, 28165251
1377, 28276200
1378, 28191345
1379, 28036145
1380, 28173378
1381, 28044664
1382, 27901194
1383, 28029862
1384, 27943661
1385, 28078945
1386, 27974600
1387, 28165330
1388, 28390572
1389, 28489518
1390, 28582176
1391, 28484981
1392, 28583157
1393, 28693591
1394, 28780022
1395, 28904088
1396, 29136458
1397, 29466130
1398, 29060789
1399, 28821203
1400, 28993640
1401, 28788079
1402, 28663304
1403, 28591327
1404, 28697304
1405, 28597785
1406, 28723364
1407, 28870225
1408, 29120687
1409, 28937405
1410, 29127344
1411, 29280653
1412, 29144592
1413, 29062266
1414, 29166149
1415, 29282461
1416, 29184351
1417, 29346090
1418, 29236611
1419, 29061086
1420, 29234403
1421, 29036616
1422, 29170968
1423, 28588393
1424, 28793978
1425, 28961059
1426, 28669457
1427, 28832279
1428, 28989577
1429, 28788304
1430, 28619074
1431, 28786245
1432, 28947681
1433, 29088910
1434, 29216324
1435, 29076514
1436, 28914354
1437, 29091126
1438, 28959598
1439, 28827116
1440, 28901277
1441, 28723941
1442, 28818520
1443, 29030450
1444, 29122448
1445, 29255598
1446, 29150703
1447, 29259614
1448, 29219935
1449, 29031814
1450, 28789615
1451, 28921967
1452, 29037315
1453, 29165358
1454, 29036439
1455, 28923073
1456, 28378238
1457, 28680620
1458, 28823221
1459, 28688962
1460, 28426270
1461, 28172007
1462, 28299243
1463, 28132362
1464, 28232989
1465, 28377486
1466, 28555355
1467, 28420347
1468, 28499506
1469, 28623655
1470, 28541540
1471, 28476372
1472, 28303622
1473, 28436656
1474, 28289242
1475, 28426298
1476, 28327279
1477, 28190619
1478, 28396933
1479, 28583009
1480, 28768665
1481, 28696612
1482, 28781912
1483, 29203735
1484, 28964602
1485, 28844203
1486, 28769057
1487, 28898697
1488, 28706855
1489, 28843719
1490, 28766812
1491, 28576908
1492, 28748369
1493, 28942956
1494, 28833764
1495, 28716514
1496, 28846853
1497, 29081430
1498, 29240777
1499, 29122622
1500, 29261610
1501, 29113741
1502, 28689341
1503, 28399851
1504, 28246635
1505, 28411759
1506, 28190651
1507, 27950735
1508, 27702524
1509, 27861412
1510, 28113355
1511, 27879379
1512, 27751157
1513, 28047337
1514, 27860944
1515, 27712920
1516, 28156071
1517, 27985158
1518, 27819031
1519, 27969323
1520, 28158312
1521, 27927294
1522, 27701000
1523, 27881714
1524, 28127841
1525, 28288896
1526, 28220195
1527, 28354165
1528, 28464568
1529, 28315250
1530, 28194556
1531, 28026315
1532, 28138695
1533, 28395913
1534, 28542448
1535, 28670568
1536, 28822176
1537, 28712248
1538, 28601178
1539, 28477783
1540, 28407901
1541, 28300145
1542, 28399502
1543, 28472244
1544, 28557609
1545, 28356117
1546, 28484561
1547, 28641564
1548, 28773311
1549, 28601049
1550, 28831655
1551, 29030439
1552, 29160834
1553, 29262420
1554, 29476808
1555, 29336578
1556, 29190350
1557, 28935423
1558, 28746488
1559, 28888349
1560, 29132564
1561, 28939038
1562, 29167970
1563, 28938443
1564, 29327940
1565, 29069643
1566, 29399074
1567, 29163664
1568, 28980308
1569, 28758877
1570, 28630012
1571, 28798135
1572, 28592390
1573, 28682147
1574, 29191138
1575, 28956816
1576, 28736649
1577, 28513105
1578, 28196807
1579, 28346327
1580, 28216069
1581, 28368179
1582, 28191546
1583, 28612648
1584, 28817596
1585, 28612386
1586, 28845997
1587, 28550236
1588, 28712143
1589, 28849134
1590, 28740632
1591, 28589626
1592, 28339055
1593, 28637448
1594, 28868867
1595, 29075925
1596, 29260709
1597, 29441882
1598, 29306950
1599, 29686624
1600, 29856358
1601, 29734029
1602, 29642222
1603, 29499411
1604, 29293988
1605, 29123535
1606, 29268502
1607, 29017259
1608, 29401306
1609, 28876321
1610, 29210327
1611, 29037398
1612, 28819520
1613, 28524364
1614, 28198097
1615, 27922728
1616, 28166749
1617, 27945433
1618, 27694644
1619, 27328995
1620, 27018153
1621, 27497726
1622, 26823080
1623, 27330301
1624, 26956335
1625, 27281609
1626, 27487901
1627, 27625688
1628, 27320967
1629, 27043077
1630, 26790510
1631, 27415022
1632, 27838212
1633, 28145353
1634, 28337780
1635, 28165134
1636, 28452733
1637, 28624494
1638, 28801493
1639, 28960104
1640, 28637264
1641, 28428796
1642, 28154402
1643, 28354713
1644, 28900780
1645, 28435902
1646, 28204310
1647, 28362948
1648, 28581206
1649, 28735448
1650, 28324163
1651, 28077513
1652, 27863549
1653, 27610230
1654, 27193251
1655, 27388644
1656, 27538676
1657, 27743477
1658, 27568861
1659, 27755066
1660, 27345136
1661, 27007418
1662, 27327821
1663, 27536419
1664, 27693315
1665, 27448417
1666, 27690275
1667, 27918338
1668, 28216137
1669, 28067298
1670, 28193775
1671, 28018986
1672, 28122965
1673, 27962899
1674, 28080875
1675, 28253160
1676, 28520238
1677, 28437103
1678, 28576328
1679, 28954295
1680, 28796093
1681, 28555880
1682, 28259816
1683, 28496070
1684, 28717104
1685, 28447299
1686, 28224659
1687, 27823847
1688, 27557090
1689, 27766128
1690, 27916472
1691, 27789351
1692, 27945963
1693, 27698443
1694, 27299634
1695, 27465769
1696, 27205324
1697, 27553751
1698, 27304161
1699, 27190561
1700, 27446319
1701, 27606500
1702, 28134859
1703, 27797768
1704, 28100518
1705, 28388718
1706, 28085721
1707, 27874454
1708, 27678628
1709, 27785042
1710, 27575166
1711, 27356008
1712, 27153221
1713, 27348062
1714, 28218512
1715, 27984813
1716, 28249152
1717, 28445021
1718, 28324340
1719, 28409235
1720, 28307962
1721, 28205503
1722, 28355321
1723, 28204466
1724, 28534935
1725, 28685914
1726, 28402669
1727, 28162994
1728, 28006154
1729, 28210827
1730, 28057165
1731, 27803912
1732, 28094111
1733, 28238460
1734, 28435602
1735, 28656951
1736, 28476591
1737, 28684528
1738, 28515319
1739, 28706210
1740, 29097495
1741, 29209577
1742, 29472775
1743, 29714727
1744, 29928297
1745, 29704775
1746, 29865455
1747, 29865455
1748, 29753294
1749, 29595740
1750, 29787540
1751, 29410464
1752, 29135893
1753, 28967510
1754, 29178811
1755, 29321422
1756, 29407625
1757, 29253491
1758, 29103690
1759, 29235193
1760, 29586481
1761, 29586481
1762, 29107866
1763, 29538206
1764, 29821615
1765, 30070203
1766, 30344642
1767, 29906790
1768, 30225089
1769, 30470603
1770, 30654215
1771, 30822084
1772, 30993577
1773, 31271053
1774, 31522671
1775, 30878999
1776, 30692311
1777, 30500303
1778, 30273949
1779, 30053185
1780, 30185663
1781, 30355282
1782, 30187413
1783, 30556720
1784, 30334007
1785, 30127463
1786, 30474029
1787, 30687965
1788, 30502530
1789, 30362536
1790, 30071142
1791, 29571772
1792, 29806091
1793, 29976151
1794, 29794514
1795, 29942424
1796, 30280494
1797, 30098059
1798, 30370612
1799, 30554098
1800, 30386397
1801, 30052821
1802, 30358190
1803, 29948362
1804, 30297312
1805, 30001649
1806, 30238999
1807, 29946098
1808, 30303873
1809, 30012573
1810, 29840464
1811, 30216532
1812, 29997981
1813, 29853891
1814, 29719889
1815, 29574529
1816, 29307787
1817, 29038593
1818, 28791822
1819, 28603808
1820, 28867857
1821, 29137801
1822, 29434090
1823, 29635522
1824, 29474844
1825, 29774245
1826, 29467112
1827, 32135518
1828, 31722907
1829, 31525915
1830, 31690845
1831, 32145202
1832, 32425931
1833, 32565515
1834, 32462457
1835, 32645559
1836, 32442189
1837, 32633341
1838, 32374777
1839, 32518752
1840, 32225780
1841, 32073567
1842, 31915419
1843, 32362075
1844, 32223679
1845, 32106375
1846, 32310258
1847, 32060284
1848, 32449850
1849, 32665459
1850, 32755614
1851, 32462322
1852, 32201719
1853, 31415568
1854, 30909523
1855, 30441370
1856, 30157028
1857, 30417380
1858, 30252682
1859, 30520995
1860, 30726837
1861, 30909535
1862, 30810046
1863, 30655433
1864, 30285604
1865, 30617996
1866, 30965414
1867, 31468549
1868, 31261080
1869, 31006902
1870, 30765896
1871, 30442331
1872, 30681571
1873, 30522648
1874, 30816023
1875, 30674969
1876, 30482484
1877, 30607356
1878, 30746168
1879, 30523743
1880, 30652752
1881, 30837399
1882, 30710828
1883, 30574372
1884, 30369319
1885, 30558590
1886, 30424089
1887, 30566822
1888, 30379566
1889, 30663197
1890, 30501067
1891, 30351868
1892, 30564183
1893, 30844722
1894, 30342735
1895, 30819865
1896, 31165691
1897, 30997590
1898, 31175635
1899, 31300215
1900, 31568360
1901, 31777943
1902, 31513905
1903, 31239758
1904, 31389686
1905, 31623079
1906, 31165358
1907, 30890240
1908, 30638789
1909, 30482420
1910, 30235310
1911, 30690971
1912, 31184941
1913, 31391092
1914, 31576570
1915, 31735364
1916, 31890174
1917, 31710709
1918, 31542571
1919, 31352766
1920, 31444293
1921, 31283608
1922, 31431403
1923, 31578857
1924, 31746534
1925, 31645881
1926, 31511985
1927, 31668305
1928, 31567834
1929, 31422725
1930, 31177112
1931, 31284570
1932, 31066727
1933, 31534535
1934, 30862535
1935, 31247324
1936, 31686547
1937, 31375208
1938, 31176936
1939, 30876818
1940, 30657946
1941, 29800401
1942, 29490102
1943, 28711108
1944, 29168642
1945, 29527326
1946, 29821503
1947, 29603162
1948, 29724262
1949, 30107770
1950, 29679299
1951, 29880424
1952, 30017689
1953, 29683341
1954, 29409750
1955, 29705342
1956, 29944251
1957, 30127118
1958, 30388078
1959, 30629460
1960, 30317489
1961, 30186126
1962, 29880861
1963, 29631339
1964, 29826614
1965, 30236833
1966, 30505370
1967, 30855971
1968, 29853757
1969, 29957810
1970, 29807436
1971, 30005748
1972, 29855660
1973, 30481665
1974, 30766058
1975, 30963633
1976, 31273014
1977, 31144417
1978, 31737373
1979, 31454974
1980, 31283177
1981, 31569672
1982, 31752998
1983, 31935202
1984, 32074856
1985, 32271762
1986, 32421110
1987, 32161763
1988, 31988407
1989, 32295560
1990, 32118346
1991, 31803531
1992, 32053351
1993, 31741287
1994, 31146963
1995, 31381591
1996, 31138062
1997, 31330439
1998, 31676641
1999, 31405431
2000, 30967854
2001, 30758293
2002, 30927952
2003, 31153042
2004, 30931260
2005, 31055886
2006, 31303978
2007, 30950927
2008, 30694747
2009, 30903361
2010, 30731483
2011, 30886760
2012, 31052808
2013, 31492550
2014, 31107505
2015, 30928264
2016, 31059404
2017, 31246962
2018, 31429651
2019, 31578929
2020, 31837539
2021, 32102575
2022, 31875503
2023, 32087369
2024, 32497798
2025, 32382099
2026, 32561444
2027, 32811216
2028, 32564981
2029, 32368461
2030, 32186905
2031, 32455241
2032, 32547606
2033, 32808226
2034, 32685407
2035, 32873811
2036, 32446104
2037, 32609557
2038, 32486238
2039, 32639362
2040, 32796994
2041, 33021896
2042, 33144283
2043, 33035485
2044, 32745704
2045, 32948063
2046, 32798520
2047, 32693646
2048, 32916234
2049, 33004136
2050, 33101751
2051, 33339601
2052, 33081389
2053, 32823574
2054, 32407544
2055, 33114734
2056, 32853145
2057, 33019324
2058, 33246115
2059, 33466656
2060, 33713072
2061, 34055360
2062, 33903141
2063, 34326852
2064, 34078141
2065, 34344881
2066, 34516892
2067, 34352134
2068, 34536387
2069, 34404590
2070, 34292188
2071, 34168699
2072, 34382514
2073, 34271362
2074, 34450612
2075, 34308671
2076, 34596856
2077, 34362664
2078, 34596491
2079, 34372245
2080, 34199608
2081, 34357637
2082, 34458796
2083, 34622184
2084, 34515434
2085, 34345158
2086, 34448767
2087, 34375334
2088, 34551966
2089, 34718917
2090, 34576639
2091, 34449010
2092, 34027364
2093, 33869685
2094, 34064705
2095, 34267550
2096, 34365554
2097, 34921165
2098, 35083237
2099, 34925102
2100, 34985799
2101, 35075099
2102, 35222719
2103, 35396509
2104, 35516494
2105, 35713798
2106, 35878667
2107, 36017318
2108, 35848558
2109, 35595166
2110, 35753920
2111, 35605124
2112, 35736547
2113, 35648116
2114, 35404134
2115, 35119138
2116, 34925716
2117, 35301503
2118, 34950938
2119, 34950938
2120, 35520416
2121, 35682326
2122, 35571438
2123, 35370509
2124, 35522756
2125, 35685230
2126, 35584625
2127, 35707084
2128, 35794804
2129, 35716281
2130, 35601343
2131, 35709289
2132, 35594773
2133, 35745758
2134, 35575989
2135, 35658524
2136, 35718696
2137, 35807549
2138, 35681178
2139, 35791336
2140, 35882953
2141, 35551364
2142, 35035661
2143, 35179706
2144, 35087980
2145, 35178807
2146, 35337848
2147, 35544391
2148, 35685019
2149, 35463545
2150, 35301126
2151, 35458962
2152, 35235584
2153, 35492675
2154, 35351607
2155, 35742298
2156, 35975980
2157, 36128424
2158, 35943336
2159, 36093235
2160, 35806009
2161, 36149604
2162, 36662000
2163, 36360973
2164, 36137250
2165, 36290049
2166, 36617194
2167, 36251410
2168, 35916311
2169, 36011274
2170, 36114194
2171, 36248149
2172, 36099656
2173, 36228039
2174, 36381564
2175, 36508378
2176, 36615503
2177, 36702585
2178, 36566192
2179, 36766430
2180, 36854236
2181, 36741208
2182, 36590453
2183, 36352729
2184, 36821341
2185, 36619604
2186, 36831303
2187, 36623468
2188, 36810364
2189, 36630722
2190, 36739487
2191, 36859416
2192, 36694570
2193, 36808674
2194, 36638335
2195, 36847202
2196, 36630379
2197, 36452556
2198, 35707088
2199, 36084615
2200, 36369211
2201, 36986418
2202, 37160925
2203, 37607099
2204, 37458113
2205, 37655609
2206, 37373180
2207, 37208310
2208, 37364950
2209, 37513974
2210, 37242569
2211, 37076854
2212, 36842665
2213, 36992503
2214, 37120034
2215, 37319182
2216, 37529220
2217, 37770912
2218, 37593505
2219, 37949969
2220, 38106548
2221, 38224498
2222, 38371073
2223, 38256831
2224, 38426206
2225, 38591104
2226, 38316034
2227, 38031063
2228, 37674693
2229, 38085594
2230, 38720639
2231, 38290724
2232, 38682685
2233, 38114295
2234, 38604874
2235, 38082578
2236, 38082578
2237, 36086933
2238, 35664713
2239, 35270248
2240, 34914597
2241, 34580668
2242, 34206260
2243, 34493393
2244, 34057474
2245, 34380915
2246, 34011845
2247, 33298690
2248, 33766756
2249, 33985175
2250, 34284516
2251, 34511320
2252, 34258395
2253, 34540632
2254, 34702098
2255, 34850735
2256, 34962406
2257, 35190250
2258, 34960290
2259, 35254032
2260, 35129228
2261, 34936295
2262, 35098664
2263, 35298998
2264, 35525187
2265, 35828142
2266, 35516076
2267, 35729450
2268, 35881769
2269, 35704762
2270, 35545162
2271, 35352181
2272, 35211475
2273, 34978702
2274, 34809807
2275, 34960461
2276, 35104843
2277, 35260550
2278, 35089810
2279, 34946276
2280, 35296315
2281, 35128969
2282, 34957890
2283, 34792784
2284, 34904972
2285, 35039769
2286, 35279781
2287, 35555573
2288, 35842615
2289, 35579584
2290, 35411488
2291, 35255222
2292, 35435382
2293, 35652603
2294, 35439154
2295, 35237995
2296, 35478501
2297, 35704964
2298, 35857593
2299, 36295466
2300, 36453306
2301, 36750141
2302, 36629594
2303, 36903241
2304, 36750476
2305, 37118427
2306, 37307776
2307, 37588320
2308, 37347058
2309, 37141896
2310, 37394955
2311, 37250433
2312, 37610933
2313, 37764749
2314, 37596829
2315, 37738634
2316, 37563379
2317, 37252353
2318, 37124390
2319, 37249300
2320, 37431950
2321, 37262986
2322, 37400237
2323, 37242053
2324, 37406342
2325, 37209350
2326, 37435428
2327, 37597881
2328, 37758387
2329, 37574531
2330, 37440942
2331, 37321939
2332, 37506390
2333, 37642546
2334, 37750580
2335, 37627292
2336, 37522826
2337, 37387492
2338, 37647260
2339, 37463953
2340, 37723179
2341, 37528385
2342, 37643081
2343, 37405707
2344, 37275950
2345, 37121993
2346, 37268974
2347, 37129058
2348, 37673445
2349, 37673445
2350, 37967722
2351, 37845813
2352, 37924823
2353, 37780016
2354, 37532002
2355, 37719246
2356, 37545483
2357, 37680140
2358, 37878532
2359, 38076246
2360, 37707870
2361, 37517359
2362, 37918187
2363, 37731541
2364, 37229685
2365, 36798466
2366, 37052843
2367, 36648409
2368, 36275434
2369, 35956249
2370, 35630507
2371, 35357423
2372, 35857144
2373, 36106320
2374, 35896135
2375, 36280122
2376, 36635590
2377, 36834822
2378, 36683369
2379, 36879171
2380, 37110292
2381, 37314025
2382, 37612481
2383, 37775819
2384, 37943211
2385, 37710437
2386, 37964039
2387, 37747335
2388, 37941114
2389, 38083873
2390, 38176832
2391, 38271423
2392, 38397200
2393, 38684582
2394, 38535835
2395, 38784442
2396, 38955969
2397, 38764113
2398, 38489168
2399, 38289745
2400, 38433880
2401, 38212303
2402, 38407480
2403, 38129020
2404, 37767251
2405, 38090601
2406, 37472835
2407, 37784518
2408, 37492328
2409, 37739461
2410, 37338806
2411, 37741414
2412, 38069361
2413, 37721790
2414, 37168826
2415, 37392746
2416, 37689759
2417, 37909242
2418, 37520494
2419, 37800299
2420, 37415436
2421, 36988435
2422, 36405213
2423, 37071765
2424, 37755039
2425, 38397700
2426, 39523671
2427, 40043587
2428, 40413430
2429, 40121104
2430, 40586391
2431, 40751172
2432, 40331520
2433, 40599910
2434, 40342331
2435, 40696222
2436, 41798564
2437, 41235381
2438, 41588229
2439, 42056073
2440, 42282791
2441, 42736650
2442, 43079239
2443, 42772634
2444, 42585725
2445, 42460593
2446, 42151420
2447, 42465297
2448, 42061049
2449, 41846042
2450, 41676205
2451, 41903579
2452, 42037643
2453, 41843224
2454, 42010573
2455, 41900220
2456, 41696527
2457, 41967096
2458, 42211050
2459, 42429894
2460, 42184256
2461, 41946362
2462, 42148768
2463, 41964702
2464, 42101220
2465, 41956815
2466, 41785440
2467, 41516905
2468, 41764596
2469, 42000978
2470, 42660160
2471, 42455149
2472, 42712813
2473, 42807785
2474, 42909019
2475, 43026501
2476, 42922609
2477, 42666173
2478, 42430150
2479, 41808523
2480, 41504678
2481, 41779298
2482, 42100083
2483, 41863084
2484, 41637147
2485, 41346925
2486, 41113015
2487, 40795416
2488, 40956670
2489, 40747966
2490, 40922833
2491, 41350987
2492, 41101476
2493, 41406878
2494, 40873596
2495, 40504204
2496, 40767039
2497, 41168069
2498, 41717962
2499, 41367331
2500, 40941709
2501, 41349857
2502, 42320545
2503, 41669547
2504, 42225631
2505, 41749288
2506, 42212391
2507, 42354373
2508, 42655903
2509, 43011066
2510, 43243161
2511, 43527029
2512, 43702754
2513, 43952710
2514, 43623635
2515, 43800383
2516, 43523445
2517, 43786213
2518, 43590811
2519, 43350011
2520, 43084209
2521, 42800625
2522, 42529803
2523, 42186490
2524, 41686373
2525, 42013368
2526, 41765455
2527, 41968179
2528, 41617126
2529, 42097994
2530, 41787735
2531, 41151427
2532, 41497669
2533, 41996635
2534, 41634701
2535, 41634701
2536, 41805102
2537, 42080630
2538, 41714827
2539, 42136803
2540, 41774244
2541, 42185340
2542, 42020681
2543, 42213783
2544, 42013632
2545, 42344182
2546, 41985074
2547, 41649500
2548, 41390656
2549, 41788674
2550, 41463456
2551, 41149517
2552, 40902720
2553, 41079785
2554, 41383139
2555, 41678708
2556, 41167059
2557, 40902434
2558, 40635311
2559, 40211140
2560, 41633618
2561, 40672698
2562, 39986192
2563, 40653649
2564, 39925277
2565, 40469522
2566, 39947352
2567, 40401877
2568, 41027979
2569, 41770200
2570, 41547734
2571, 41777001
2572, 42105357
2573, 41927796
2574, 41484984
2575, 41158498
2576, 40860065
2577, 41129586
2578, 41414987
2579, 41178169
2580, 41601214
2581, 41916218
2582, 42470981
2583, 41876329
2584, 42235931
2585, 41888720
2586, 42271093
2587, 42546989
2588, 42780997
2589, 42523037
2590, 42179785
2591, 42782662
2592, 42463466
2593, 42682581
2594, 43163821
2595, 43409700
2596, 43012963
2597, 42816031
2598, 42477570
2599, 42791557
2600, 42518184
2601, 43016202
2602, 43468179
2603, 43261145
2604, 43500358
2605, 43773940
2606, 43408611
2607, 43033179
2608, 43213866
2609, 43486718
2610, 43170130
2611, 43170130
2612, 43316659
2613, 43091504
2614, 43300518
2615, 43077967
2616, 42748878
2617, 42585791
2618, 42269097
2619, 42004636
2620, 42257278
2621, 43043820
2622, 44372039
2623, 45018109
2624, 44640431
2625, 44977774
2626, 45236327
2627, 44984095
2628, 45233421
2629, 45421477
2630, 45020631
2631, 44800229
2632, 45051111
2633, 45233260
2634, 45400791
2635, 45247360
2636, 45033488
2637, 44787688
2638, 44327912
2639, 43793661
2640, 43464094
2641, 43776346
2642, 44067554
2643, 44260587
2644, 44008980
2645, 43638877
2646, 43896184
2647, 44061436
2648, 43808171
2649, 44191957
2650, 43743897
2651, 43364041
2652, 43640528
2653, 43458897
2654, 44001712
2655, 44222943
2656, 44037924
2657, 43572550
2658, 43773255
2659, 43595357
2660, 43223058
2661, 42937685
2662, 42510566
2663, 42283851
2664, 42745700
2665, 43069460
2666, 43659861
2667, 43883892
2668, 44165495
2669, 43847956
2670, 44078725
2671, 44270514
2672, 44531866
2673, 44776164
2674, 44508592
2675, 44372680
2676, 44617547
2677, 44837845
2678, 45030931
2679, 45185887
2680, 44984041
2681, 45262083
2682, 45529136
2683, 45275249
2684, 44983004
2685, 45314126
2686, 45719786
2687, 46703820
2688, 47150228
2689, 46848746
2690, 46410015
2691, 46642631
2692, 46344970
2693, 46074532
2694, 46377768
2695, 46536562
2696, 46221452
2697, 46778779
2698, 46981763
2699, 46803558
2700, 46990745
2701, 47133742
2702, 47296150
2703, 47049390
2704, 47282729
2705, 47556540
2706, 47623754
2707, 47336005
2708, 47465330
2709, 47303363
2710, 47114722
2711, 47207025
2712, 46956134
2713, 46723707
2714, 46480353
2715, 46661447
2716, 46486238
2717, 46231202
2718, 46422517
2719, 46620028
2720, 46454420
2721, 45618222
2722, 45849495
2723, 45975805
2724, 46199542
2725, 46118169
2726, 46260161
2727, 46343572
2728, 46239529
2729, 46076577
2730, 45778968
2731, 45444681
2732, 45042168
2733, 44710101
2734, 45293473
2735, 44971347
2736, 45267354
2737, 44874772
2738, 44421384
2739, 44065865
2740, 44294868
2741, 44033682
2742, 43700098
2743, 43960925
2744, 43621244
2745, 44219742
2746, 43714920
2747, 44147523
2748, 44965835
2749, 44673153
2750, 44338310
2751, 44783468
2752, 44407620
2753, 44117865
2754, 44654452
2755, 45251875
2756, 44879167
2757, 45420937
2758, 45736219
2759, 45338646
2760, 44953981
2761, 44686329
2762, 43966056
2763, 43567842
2764, 43840188
2765, 44066506
2766, 44281069
2767, 44117175
2768, 44336153
2769, 44575768
2770, 44416618
2771, 44780989
2772, 45088995
2773, 44866811
2774, 45110222
2775, 45432287
2776, 45158187
2777, 45404093
2778, 45110120
2779, 45485600
2780, 45679721
2781, 45992554
2782, 45363718
2783, 45581680
2784, 45829922
2785, 46090242
2786, 45876845
2787, 46206066
2788, 46847935
2789, 47150349
2790, 46766481
2791, 46965848
2792, 46783920
2793, 46559123
2794, 46816391
2795, 46591174
2796, 46774774
2797, 46774774
2798, 46981397
2799, 47158709
2800, 47376520
2801, 47630371
2802, 47857656
2803, 47544296
2804, 47738449
2805, 47513708
2806, 47758929
2807, 47485713
2808, 47725760
2809, 48036302
2810, 47446864
2811, 46650323
2812, 47140773
2813, 46284411
2814, 45696445
2815, 46011045
2816, 46238763
2817, 46613269
2818, 46814558
2819, 46556648
2820, 46781790
2821, 46573645
2822, 46747646
2823, 46289713
2824, 45944207
2825, 45684924
2826, 45994129
2827, 45768346
2828, 46032445
2829, 45854853
2830, 45998514
2831, 46250926
2832, 46525017
2833, 46325741
2834, 46553701
2835, 46405044
2836, 46215844
2837, 46390040
2838, 46521234
2839, 46647648
2840, 46929219
2841, 46661135
2842, 46409130
2843, 46190735
2844, 46482970
2845, 46123229
2846, 46267624
2847, 46486138
2848, 46652946
2849, 47030650
2850, 46557952
2851, 46222011
2852, 46443910
2853, 46646647
2854, 47052079
2855, 47225530
2856, 47013535
2857, 47210415
2858, 47050975
2859, 47186412
2860, 47334418
2861, 47481703
2862, 47289129
2863, 47151839
2864, 46983396
2865, 46887717
2866, 46798479
2867, 46994258
2868, 46858579
2869, 47002861
2870, 46763082
2871, 46952002
2872, 46624205
2873, 46380263
2874, 45635019
2875, 45326247
2876, 44911415
2877, 45129276
2878, 45304540
2879, 45082204
2880, 44893356
2881, 44737244
2882, 44872899
2883, 44684046
2884, 44582880
2885, 44477832
2886, 44287829
2887, 44470877
2888, 44696227
2889, 44482556
2890, 44630042
2891, 44948778
2892, 45138449
2893, 45362358
2894, 45746189
2895, 45912920
2896, 45710030
2897, 45424663
2898, 45210553
2899, 45468629
2900, 45711137
2901, 46033688
2902, 45746892
2903, 45412995
2904, 45598763
2905, 45346647
2906, 45193640
2907, 45359551
2908, 45042966
2909, 45280917
2910, 45567555
2911, 45145950
2912, 45432885
2913, 45272591
2914, 44977677
2915, 44333534
2916, 44549714
2917, 44371092
2918, 44786616
2919, 44478986
2920, 44231393
2921, 44424931
2922, 44581509
2923, 44296334
2924, 44415059
2925, 44258966
2926, 44402685
2927, 44187198
2928, 44367596
2929, 44450700
2930, 44565913
2931, 44665779
2932, 44441647
2933, 44629827
2934, 44475935
2935, 44475935
2936, 44293058
2937, 44471203
2938, 43997095
2939, 43342021
2940, 42991077
2941, 43262685
2942, 43040800
2943, 43280022
2944, 43745931
2945, 44260594
2946, 43942234
2947, 43296058
2948, 43617969
2949, 43930832
2950, 43737483
2951, 43946159
2952, 44156946
2953, 44390431
2954, 44575938
2955, 45035523
2956, 45232812
2957, 45358363
2958, 45710484
2959, 45377844
2960, 45049959
2961, 45524908
2962, 45919090
2963, 45562582
2964, 45925739
2965, 45337270
2966, 45752823
2967, 46148190
2968, 45867029
2969, 45591900
2970, 45242528
2971, 44890916
2972, 44214585
2973, 44499477
2974, 44773110
2975, 44489189
2976, 44192770
2977, 44356843
2978, 44561890
2979, 44367639
2980, 44225976
2981, 43981916
2982, 43640319
2983, 44066517
2984, 43704197
2985, 43991804
2986, 44371846
2987, 44207811
2988, 44404018
2989, 44591229
2990, 44783087
2991, 44508577
2992, 44773652
2993, 44393051
2994, 44040282
2995, 44431025
2996, 44702032
2997, 44430252
2998, 44150396
2999, 44475847
3000, 44129717
3001, 44806819
3002, 45258790
3003, 44929092
3004, 45210478
3005, 44953065
3006, 44588088
3007, 44989944
3008, 45432910
3009, 46606149
3010, 46161147
3011, 45724280
3012, 45195500
3013, 45465514
3014, 45143270
3015, 45334138
3016, 45127307
3017, 44873865
3018, 45108957
3019, 45363623
3020, 45758312
3021, 46133521
3022, 45802097
3023, 46103878
3024, 45798322
3025, 45340522
3026, 45781097
3027, 45435940
3028, 45876435
3029, 45651261
3030, 45382179
3031, 45610550
3032, 45421686
3033, 45831400
3034, 46081851
3035, 45756855
3036, 45888961
3037, 46027076
3038, 45870986
3039, 45870986
3040, 46111430
3041, 45980628
3042, 45837145
3043, 46036619
3044, 45606933
3045, 45929437
3046, 45552417
3047, 45849438
3048, 45632203
3049, 45877431
3050, 46144172
3051, 45904721
3052, 45738006
3053, 45961190
3054, 46160223
3055, 45892371
3056, 46250730
3057, 46438047
3058, 46691825
3059, 46985608
3060, 47332518
3061, 47092210
3062, 47737459
3063, 46755731
3064, 47209896
3065, 47597163
3066, 48089490
3067, 48505943
3068, 48883157
3069, 48578314
3070, 48888807
3071, 48575054
3072, 48345829
3073, 48559388
3074, 48771853
3075, 48503381
3076, 48175325
3077, 48509643
3078, 48749842
3079, 48955592
3080, 49144333
3081, 49349040
3082, 49508503
3083, 49734542
3084, 50021995
3085, 50296628
3086, 50468677
3087, 50229307
3088, 49884168
3089, 50253548
3090, 50067244
3091, 50258598
3092, 50017869
3093, 50197853
3094, 50411656
3095, 50210018
3096, 49755877
3097, 49923687
3098, 50165747
3099, 50353050
3100, 50185471
3101, 49707746
3102, 50017094
3103, 49827684
3104, 49998485
3105, 49800884
3106, 50041118
3107, 50160777
3108, 50406468
3109, 50803418
3110, 51050388
3111, 51299342
3112, 51116964
3113, 51260444
3114, 50979763
3115, 51287868
3116, 51589369
3117, 51308705
3118, 51706864
3119, 51406416
3120, 51132894
3121, 51524547
3122, 50925508
3123, 50606533
3124, 50276359
3125, 49359016
3126, 48391253
3127, 48856348
3128, 48506444
3129, 48506444
3130, 48675238
3131, 48848036
3132, 48848036
3133, 48658405
3134, 48392100
3135, 48607119
3136, 48754939
3137, 48563311
3138, 48813040
3139, 48590561
3140, 48782253
3141, 48655521
3142, 48846294
3143, 48665074
3144, 48484350
3145, 48815784
3146, 48573281
3147, 48800410
3148, 49009308
3149, 49277680
3150, 49461402
3151, 49268213
3152, 49026455
3153, 49268404
3154, 49476882
3155, 49687460
3156, 49902783
3157, 49672406
3158, 49839350
3159, 49438083
3160, 49637486
3161, 49898805
3162, 50066736
3163, 50267057
3164, 50076865
3165, 50300531
3166, 50100046
3167, 49826093
3168, 50055185
3169, 49833638
3170, 50098570
3171, 50301646
3172, 50069125
3173, 50069125
3174, 50232531
3175, 50092581
3176, 50280258
3177, 50117143
3178, 50285829
3179, 50473656
3180, 50710558
3181, 50886554
3182, 50678154
3183, 50830840
3184, 50956358
3185, 50535859
3186, 50725813
3187, 50523182
3188, 50758785
3189, 50225133
3190, 49963689
3191, 50438586
3192, 50717906
3193, 50458657
3194, 50674625
3195, 50402873
3196, 50075879
3197, 50347294
3198, 50200634
3199, 50396426
